##TITLE=PFDA-MAA-Transmission
##JCAMP-DX=4.24
##DATA TYPE=INFRARED SPECTRUM
##DATE=2016/4/25
##SAMPLING PROCEDURE=Thin Film
##ORIGIN=Default
##XUNITS=1/CM
##YUNITS=ABSORBANCE
##RESOLUTION=4
##FIRSTX=4000.1223
##LASTX=400.15686
##DELTAX=-0.4821167
##MAXY=0.29839098
##MINY=-0.080677435
##XFACTOR=1
##YFACTOR=2.7789826e-010
##NPOINTS=7468
##FIRSTY=-0.080677435
##XYDATA=(X++(Y..Y))
4000.12-290312846-289884544-289488928-289200832-289063008-289083168-289224192
3996.75-289424864-289609664-289708256-289677312-289504736-289217248-288860672
3993.37-288494368-288172160-287922080-287751008-287633216-287532800-287407104
3990.00-287227296-286989600-286713472-286438048-286211744-286068864-286028352
3986.62-286077984-286183648-286295040-286367136-286367456-286293152-286164736
3983.25-286025728-285924256-285889504-285928736-286017824-286104832-286127776
3979.87-286025568-285766304-285353824-284832544-284275520-283767296-283389536
3976.50-283193728-283187520-283334208-283560480-283769312-283866528-283781856
3973.12-283483712-282994784-282382048-281739680-281181120-280795456-280643360
3969.75-280720576-280974912-281305600-281591904-281721344-281617440-281262528
3966.37-280703264-280039840-279405856-278917824-278658496-278649920-278845056
3963.00-279143008-279418336-279556832-279494528-279231232-278828864-278397536
3959.62-278048448-277869120-277888896-278064192-278293856-278452896-278418432
3956.25-278123456-277566368-276822016-276017632-275305184-274810400-274607264
3952.87-274696192-275004928-275410784-275778272-275985632-275970336-275723936
3949.50-275303936-274803520-274333440-273984352-273809088-273800320-273911808
3946.13-274060032-274154784-274119744-273914496-273539520-273040736-272488896
3942.75-271963456-271533536-271234752-271062944-270983360-270933856-270854592
3939.38-270703584-270472640-270189760-269919904-269732736-269688192-269809056
3936.00-270070848-270404480-270708288-270881696-270846912-270579488-270111424
3932.63-269538336-268969856-268513728-268238672-268155792-268214192-268313200
3929.25-268342080-268212288-267882896-267386848-266801760-266250992-265844976
3925.88-265665152-265718784-265947120-266236544-266448176-266456336-266192544
3922.50-265649440-264900016-264069344-263301680-262727024-262429696-262421040
3919.13-262646736-262995184-263329088-263524720-263491040-263195424-262665760
3915.75-261980432-261250064-260578464-260046944-259694688-259510544-259444752
3912.38-259421248-259365536-259227904-258991952-258686176-258374192-258133024
3909.00-258029424-258106032-258357136-258736208-259165584-259551728-259821680
3905.63-259932272-259891424-259745488-259570528-259442848-259409712-259478672
3902.25-259605216-259709504-259696096-259481840-259025408-258335952-257474944
3898.88-256537568-255631744-254839648-254206144-253729168-253372320-253076848
3895.50-252795408-252501408-252211648-251967312-251825888-251829056-251990800
3892.13-252278368-252613632-252903328-253051808-252998720-252733616-252305344
3888.75-251802720-251329632-250978096-250797360-250782128-250873216-250975872
3885.38-250991584-250845136-250512048-250027440-249470112-248945008-248548896
3882.00-248344048-248338656-248483424-248685552-248830768-248818208-248581472
3878.63-248113424-247459376-246707376-245969488-245349872-244920208-244710128
3875.25-244702480-244836592-245032656-245207680-245292720-245249872-245075984
3871.88-244797104-244454592-244096704-243758992-243454832-243186032-242925136
3868.50-242646368-242320784-241937520-241500832-241036912-240583696-240182272
3865.13-239866256-239651472-239531760-239474400-239428192-239333744-239138720
3861.75-238803760-238317760-237705200-237015232-236324320-235718672-235280880
3858.38-235068544-235111984-235392288-235860448-236431456-237006896-237492512
3855.01-237814160-237932704-237845520-237588704-237210992-236768352-236293728
3851.63-235797984-235266304-234668272-233978576-233195808-232350688-231507856
3848.26-230754368-230175984-229829456-229728624-229830432-230045424-230264576
3844.88-230383712-230336448-230116496-229772192-229395344-229089040-228931344
3841.51-228953408-229118800-229343552-229509728-229509728-229271968-228792944
3838.13-228130432-227399360-226732528-226246160-226010640-226025296-226228896
3834.76-226511456-226743984-226816016-226655504-226250832-225641584-224916576
3831.38-224180288-223525808-223022432-222686912-222488672-222360544-222215744
3828.01-221970576-221574368-221015696-220340496-219635696-219015440-218590464
3824.63-218441264-218590624-218996176-219551024-220113312-220530432-220682336
3821.26-220512480-220040000-219356272-218597264-217904816-217381776-217070992
3817.88-216934640-216878368-216780080-216527728-216059904-215383520-214580832
3814.51-213772064-213087872-212624512-212413136-212419312-212550704-212691024
3811.13-212737360-212632000-212377040-212033200-211688976-211430096-211305760
3807.76-211311136-211389248-211447344-211393312-211168080-210773200-210264880
3804.38-209752160-209349264-209144912-209170336-209385584-209681296-209914880
3801.01-209945008-209672976-209072400-208199776-207175408-206152496-205274000
3797.63-204635920-204268000-204123312-204100592-204070832-203914048-203554608
3794.26-202977520-202233408-201415744-200639776-200007840-199583072-199378256
3790.88-199349568-199420896-199495840-199492560-199360400-199091424-198724656
3787.51-198322512-197959984-197697024-197563712-197551888-197616576-197692416
3784.13-197710480-197619376-197395264-197053696-196635024-196207216-195822160
3780.76-195523008-195311088-195158848-195010352-194798880-194469232-193994096
3777.38-193384320-192692288-191997328-191388576-190946624-190717600-190708032
3774.01-190875232-191144624-191423856-191617008-191656064-191507744-191179408
3770.63-190717600-190192656-189681552-189251824-188942480-188759888-188675840
3767.26-188636064-188575792-188437904-188186880-187816864-187356560-186862208
3763.89-186396992-186019936-185764384-185628896-185578432-185547008-185467584
3760.51-185281952-184964048-184526400-184022880-183526320-183107312-182810352
3757.14-182636992-182544160-182453488-182282752-181970864-181505664-180933984
3753.76-180352448-179882112-179629200-179649296-179924624-180356768-180792096
3750.39-181060576-181029872-180646896-179958000-179102672-178274816-177674848
3747.01-177441040-177620976-178149328-178855968-179513120-179891248-179819520
3743.64-179228608-178171936-176806464-175343232-174001952-172952416-172278992
3740.26-171971776-171947248-172072080-172210240-172255296-172153680-171916368
3736.89-171600928-171287728-171052480-170935248-170926896-170968656-170970640
3733.51-170831360-170466576-169834192-168949408-167882752-166744208-165660144
3730.14-164750352-164091824-163710704-163575136-163602144-163686032-163717056
3726.76-163615552-163341728-162910384-162375680-161811728-161291760-160862224
3723.39-160534944-160276032-160034560-159744288-159359056-158861856-158274896
3720.01-157646992-157041056-156513264-156096736-155787680-155550912-155335712
3716.64-155085536-154767696-154373984-153933424-153492896-153111536-152836704
3713.26-152689552-152656432-152693776-152733296-152701376-152534768-152193248
3709.89-151666512-150974864-150166000-149297264-148433472-147630224-146933408
3706.51-146366560-145938320-145639312-145448704-145337008-145273008-145229376
3703.14-145180480-145109344-145002048-144844464-144618112-144306256-143882384
3699.76-143332800-142651408-141853504-140978944-140091136-139266544-138581504
3696.39-138093312-137825024-137761904-137851296-138011792-138162544-138235696
3693.01-138196496-138048288-137827072-137586032-137376704-137222112-137112384
3689.64-137001632-136819520-136492464-135965360-135225056-134305232-133279160
3686.26-132247792-131316792-130569304-130045360-129742256-129611600-129575936
3682.89-129546608-129452288-129248552-128931224-128542624-128141752-127808056
3679.51-127603248-127563584-127674664-127885312-128110344-128246272-128202160
3676.14-127922040-127398912-126682888-125867168-125069960-124397928-123920768
3672.77-123651240-123544696-123509752-123430912-123209168-122780048-122136320
3669.39-121323568-120427616-119542032-118739328-118052816-117467288-116930448
3666.02-116380984-115768688-115081744-114354328-113655320-113069008-112666904
3662.64-112477952-112476560-112590640-112718904-112759984-112645064-112355560
3659.27-111930904-111453048-111020000-110709192-110555760-110539448-110582144
3655.89-110582312-110430088-110055096-109439800-108631368-107728632-106859120
3652.52-106147704-105685672-105509456-105593208-105852984-106168248-106410520
3649.14-106471088-106281032-105825136-105144424-104313552-103429408-102574432
3645.77-101806784-101144400-100561576-100004224-99409784-98727328-97939936
3642.39-97074240-96197200-95402744-94785520-94415336-94313096-94445160
3639.02-94723272-95027104-95230808-95236592-94997304-94523200-93878776
3635.64-93164584-92484840-91923008-91517544-91261352-91103712-90973128
3632.27-90800520-90539816-90181288-89753208-89305824-88900384-88582512
3628.89-88362800-88217728-88087248-87896184-87567880-87051512-86336480
3625.52-85457808-84492864-83546040-82727464-82126416-81790008-81720520
3622.14-81854712-82095656-82318896-82409912-82283896-81909696-81313992
3618.77-80576512-79806296-79116288-78590568-78262072-78110024-78060408
3615.39-78015744-77881400-77592656-77133968-76543720-75901072-75297392
3612.02-74811936-74478392-74281032-74150096-73986104-73690768-73190232
3608.64-72466160-71556344-70545552-69543560-68655392-67945984-67434512
3605.27-67084392-66821300-66560316-66229996-65793516-65259000-64672468
3601.89-64100376-63606420-63228424-62967016-62783056-62610168-62382844
3598.52-62048960-61596264-61053860-60485640-59969384-59572576-59327416
3595.14-59214592-59169932-59090464-58873392-58438440-57761368-56881200
3591.77-55902940-54967592-54221180-53777008-53677288-53885544-54285056
3588.39-54705516-54962560-54903560-54446636-53595024-52443568-51144504
3585.02-49874856-48784580-47965108-47429700-47116104-46910200-46680396
3581.64-46318000-45766832-45038456-44203072-43371768-42653148-42131696
3578.27-41835712-41734504-41744480-41755180-41662852-41393276-40923664
3574.90-40283084-39544148-38796144-38118144-37562256-37136428-36812572
3571.52-36537060-36249488-35909056-35507368-35068048-34644276-34296940
3568.15-34074756-33990720-34014604-34069652-34054524-33861476-33405462
3564.77-32648312-31609846-30368622-29043756-27771394-26670158-25811886
3561.40-25207238-24800588-24486636-24135932-23631382-22897200-21925164
3558.02-20772922-19559488-18424096-17498644-16869026-16554028-16493197
3554.65-16571909-16642138-16566380-16250769-15674134-14883244-13985605
3551.27-13111837-12380273-11862669-11559790-11410918-11306052-11122011
3547.90-10759229-10172050-9381148-8465704-7540269-6723176-6093097-5674202
3544.04-5420992-5242012-5018815-4646812-4063835-3265745-2314530-1305218-352249
3539.70+459199+1089386+1557297+1932734+2316098+2800054+3445281+4255903+5174232
3535.36+6098992+6904537+7491371+7799990+7840900+7690838+7471903+7329458+7387108
3531.02+7717704+8328256+9153783+10077714+10964013+11689762+12180667+12426365
3527.17+12481669+12450965+12456598+12608434+12969817+13543900+14276583+15065757
3523.31+15802071+16388679+16780126+16987938+17080790+17162534+17345062+17714324
3519.45+18304480+19083432+19963438+20821002+21530284+21995572+22181970+22119236
3515.59+21902048+21657122+21517440+21581848+21892696+22429434+23112786+23834176
3511.74+24485310+24993596+25340246+25560564+25734224+25954978+26298904+26799442
3507.88+27432188+28121620+28761734+29251390+29525510+29581518+29481750+29341838
3504.02+29298750+29473682+29937352+30680994+31622116+32616878+33506348+34145628
3500.17+34458696+34448412+34201132+33867644+33620268+33614844+33946464+34629920
3496.31+35595344+36710696+37815488+38758144+39437504+39823200+39954784+39927836
3492.45+39867060+39884548+40060576+40416220+40922640+41509288+42090028+42594408
3488.60+42989600+43287404+43542544+43833264+44234616+44795092+45516396+46349240
3484.74+47201244+47971496+48568480+48944336+49111676+49148012+49177808+49342772
3480.88+49768812+50529840+51629908+52994088+54484648+55938596+57201996+58164544
3477.03+58793104+59126728+59277168+59383016+59589992+59998992+60647844+61503428
3473.17+62473476+63436956+64279116+64925964+65372788+65680804+65965184+66358848
3469.31+66981864+67898416+69099080+70498776+71956584+73309928+74421272+75208672
3465.45+75667632+75874824+75964392+76091920+76394536+76961472+77810176+78890728
3461.60+80107224+81352648+82537872+83616784+84597912+85532328+86486904+87518800
3457.74+88648968+89852472+91061248+92194088+93179032+93985144+94637680+95217224
3453.88+95836696+96613264+97626184+98890312+100344272+101867184+103299232
3450.51+104494464+105357848+105874496+106118328+106233376+106401688+106797792
3447.13+107541704+108674272+110146968+111835952+113577760+115214904+116628536
3443.76+117772728+118674040+119417896+120119368+120885448+121784832+122827208
3440.38+123966480+125113232+126170152+127059640+127758080+128302816+128785232
3437.01+129327904+130052456+131039680+132311568+133809864+135418672+136981680
3433.64+138355072+139425984+140162480+140604336+140866704+141102080+141466288
3430.26+142077744+142991136+144182496+145568592+147018560+148403296+149620496
3426.89+150619968+151410704+152052144+152630576+153228640+153903424+154665168
3423.51+155481408+156288496+157016912+157609968+158053600+158380224+158666000
3420.14+159007104+159500640+160214144+161167120+162325072+163597360+164870784
3416.76+166029104+166982640+167695200+168191488+168545264+168870256+169280560
3413.39+169865184+170667072+171666800+172790112+173929968+174980320+175862496
3410.01+176550448+177085232+177551744+178070896+178745728+179641728+180757424
3406.64+182017904+183301392+184465184+185391440+186028832+186406288+186641808
3403.26+186909168+187397536+188258800+189563408+191279136+193269600+195328912
3399.89+197230928+198784656+199877264+200504576+200762272+200824448+200892752
3396.51+201145936+201704384+202599760+203783536+205148560+206565472+207923888
3393.14+209161744+210277728+211318576+212360544+213475920+214701104+216024672
3389.76+217387904+218699728+219864240+220819024+221548416+222105696+222587232
3386.39+223126400+223846336+224836240+226119568+227654112+229337552+231036576
3383.01+232622896+234009248+235168336+236143456+237033648+237960672+239042160
3379.64+240351200+241893504+243609888+245385104+247091248+248611696+249888144
3376.26+250933824+251827696+252701664+253695440+254917168+256413104+258143088
3372.89+259995408+261812624+263435152+264741504+265694832+266343088+266818576
3369.51+267295424+267952512+268919968+270249664+271903328+273761856+275662720
3366.14+277445824+278989120+280240832+281227648+282039904+282797312+283620448
3362.76+284587392+285724544+287001248+288344704+289672992+290917312+292049120
3359.39+293087360+294086720+295122368+296263392+297545472+298962560+300466048
3356.01+301972032+303396544+304665664+305750048+306663104+307462464+308233024
3352.64+309065344+310025664+311149120+312420608+313785984+315161920+316459712
3349.26+317609152+318579648+319380032+320061888+320713664+321425760+322271808
3345.89+323297664+324496512+325820192+327180576+328479776+329630592+330583744
3342.52+331335360+331931584+332457056+333008992+333671488+334494848+335479136
3339.14+336576224+337705856+338780800+339733504+340542592+341238176+341895008
3335.77+342613568+343485760+344566560+345855840+347289056+348760864+350146752
3332.39+351346688+352306048+353043648+353635616+354204192+354876192+355742880
3329.02+356839168+358128128+359506272+360843392+362013152+362941600+363620096
3325.64+364120704+364568800+365113952+365884000+366945632+368287360+369813568
3322.27+371369920+372784768+373911328+374671776+375076224+375222368+375262624
3318.89+375381408+375732736+376412672+377430208+378714912+380131296+381521888
3315.52+382746496+383723424+384443488+384972032+385424256+385935808+386617888
3312.14+387535904+388673152+389955360+391258176+392454656+393439584+394169216
3308.77+394669120+395026048+395362016+395803072+396439648+397299776+398343296
3305.39+399477472+400580480+401542624+402296256+402842240+403240896+403604448
3302.02+404057344+404705056+405590272+406695040+407924320+409153952+410249632
3298.64+411108544+411703264+412075488+412334496+412625088+413084384+413806240
3295.27+414810688+416037856+417359904+418621824+419677248+420433952+420881280
3291.89+421088608+421190784+421345216+421693248+422315456+423211296+424298592
3288.52+425428160+426442816+427204512+427650208+427804768+427781504+427748192
3285.14+427887712+428342176+429179488+430366688+431777920+433230848+434532992
3281.77+435528800+436151136+436423296+436463712+436439072+436525760+436856608
3278.39+437486368+438374208+439411104+440435840+441305856+441918752+442258400
3275.02+442384000+442425056+442525312+442812800+443349216+444118336+445022464
3271.64+445920544+446663552+447143008+447324192+447268736+447103936+447006336
3268.27+447144000+447630048+448491136+449654752+450966400+452225792+453239552
3264.89+453873184+454084160+453933120+453561376+453165856+452935072+453009120
3261.52+453442592+454195168+455146784+456132000+456991168+457613408+457961728
3258.14+458087840+458096192+458133504+458320224+458732096+459356608+460116544
3254.77+460876192+461492544+461847264+461898848+461681184+461306336+460934080
3251.40+460728544+460811776+461230144+461936544+462807552+463669760+464352192
3248.02+464723104+464734912+464421152+463903296+463336192+462880960+462654720
3244.65+462702336+462985504+463402752+463819040+464108832+464192480+464059584
3241.27+463773536+463446592+463206752+463158912+463347360+463744736+464252640
3237.90+464733984+465046528+465089440+464830464+464318688+463673696+463048576
3234.52+462590880+462401760+462508224+462850400+463306272+463721152+463954272
3231.15+463921568+463617920+463114784+462552032+462086880+461854656+461931872
3227.77+462309632+462900256+463552224+464103072+464409632+464397664+464069088
3224.40+463506752+462845344+462236384+461800928+461605792+461643232+461840480
3221.02+462082592+462251392+462259648+462078368+461740768+461334848+460971776
3217.65+460757344+460745984+460934464+461253408+461589056+461810368+461811968
3214.27+461543232+461027328+460350752+459650656+459071040+458731808+458688224
3210.90+458923264+459346752+459822592+460200544+460360224+460236064+459841088
3207.52+459247392+458578304+457964736+457512736+457279968+457256864+457380672
3204.15+457550592+457658432+457626752+457425984+457079936+456653792+456241408
3200.77+455922848+455750016+455718368+455779552+455842944+455812640+455611904
3197.40+455212192+454640160+453978912+453340896+452841728+452565472+452544192
3194.02+452740064+453060928+453379328+453574560+453555040+453298304+452844352
3190.65+452295808+451775840+451403552+451253952+451332128+451570816+451846880
3187.27+452014208+451942496+451556480+450860864+449938304+448936032+448024416
3183.90+447356160+447027808+447051136+447351456+447791424+448195808+448413184
3180.52+448340608+447955584+447320096+446558816+445822400+445247744+444918560
3177.15+444843648+444952384+445122016+445208736+445093312+444714144+444087648
3173.77+443302464+442495744+441813312+441370720+441217760+441326080+441588288
3170.40+441864480+442002656+441897952+441511552+440891424+440146688+439425536
3167.02+438867904+438567200+438542048+438730496+439004704+439212800+439214304
3163.65+438926624+438339680+437527168+436615776+435759264+435085632+434677408
3160.27+434533952+434589088+434722560+434800064+434709984+434396064+433864192
3156.90+433184064+432461664+431811456+431313472+430999744+430839584+430752832
3153.53+430631872+430382656+429946592+429322048+428566688+427782368+427084416
3150.15+426568608+426278688+426197952+426243328+426294112+426218144+425917056
3146.78+425344256+424533088+423579936+422624640+421810976+421252640+420997248
3143.40+421016160+421211424+421440960+421554304+421436800+421033952+420370944
3140.03+419531904+418648256+417847712+417231424+416835488+416634464+416543008
3136.65+416447424+416239040+415847872+415260064+414523328+413732448+412997408
3133.28+412415136+412038144+411856128+411802432+411769696+411644512+411331552
3129.90+410791328+410048096+409178624+408299104+407529664+406958720+406627040
3126.53+406509952+406526976+406567936+406519360+406299744+405879008+405284544
3123.15+404598272+403919456+403349280+402951808+402739520+402666720+402644896
3119.78+402567776+402339520+401904192+401262496+400470240+399629888+398853024
3116.40+398241376+397850240+397681440+397676128+397736000+397749792+397625792
3113.03+397311680+396814624+396194880+395547136+394971328+394546336+394301792
3109.65+394210688+394192096+394142336+393954880+393564672+392959328+392190272
3106.28+391360736+390597632+390012288+389675328+389588672+389685472+389844224
3102.90+389921664+389793664+389386080+388694880+387790656+386796768+385857824
3099.53+385096128+384586240+384331776+384270880+384292832+384275168+384115232
3096.15+383761984+383225504+382572160+381904320+381327584+380916416+380697120
3092.78+380635328+380651264+380639968+380505664+380187360+379680992+379038240
3089.40+378353632+377739200+377291680+377064736+377053952+377194688+377381728
3086.03+377492960+377427232+377127712+376599456+375909760+375166816+374495488
3082.65+373999136+373735360+373697504+373818656+373988256+374081728+374000192
3079.28+373691232+373170656+372509888+371824576+371237504+370845728+370696352
3075.90+370770016+370990304+371246112+371419904+371426976+371233856+370871360
3072.53+370418400+369982336+369666144+369534112+369597600+369808128+370071104
3069.15+370277440+370329984+370179680+369831616+369352032+368842336+368415424
3065.78+368162880+368127488+368290336+368582880+368898112+369129344+369195136
3062.41+369065632+368768288+368382528+368011744+367758080+367693600+367835648
3059.03+368146240+368542560+368919232+369183584+369276448+369193824+368985056
3055.66+368738432+368556224+368522016+368678496+369010176+369451520+369901952
3052.28+370258912+370439872+370420864+370234336+369967680+369738624+369664288
3048.91+369829376+370260096+370916928+371702880+372491104+373153504+373601920
3045.53+373804576+373798464+373676800+373563584+373580640+373811808+374287296
3042.16+374968000+375762592+376554272+377230016+377717248+377998272+378117856
3038.78+378168640+378265344+378509312+378966048+379640864+380480704+381391776
3035.41+382264832+383012256+383586752+384001600+384325216+384661504+385122688
3032.03+385789152+386696544+387813824+389060224+390318240+391476448+392450720
3028.66+393215168+393805056+394308000+394838080+395505984+396385024+397497760
3025.28+398804096+400218848+401636448+402960928+404134208+405154560+406072128
3021.91+406978432+407976800+409153696+410553280+412163872+413921440+415725824
3018.53+417467456+419057920+420453952+421669088+422766976+423848064+425018144
3015.16+426365216+427932192+429708064+431632800+433615872+435555648+437375936
3011.78+439040864+440563904+442005376+443450400+444988032+446685728+448565856
3008.41+450605664+452739424+454880448+456942272+458870752+460651392+462318528
3005.03+463943232+465612128+467402688+469358528+471474080+473698656+475947296
3001.66+478125184+480152416+481992000+483653856+485198048+486708384+488276096
2998.28+489964128+491791808+493724096+495681152+497561088+499269344+500744992
2994.91+501980544+503026080+503972928+504928928+505985216+507188928+508526848
2991.53+509925056+511267616+512430720+513309888+513855680+514083456+514070016
2988.16+513930496+513785024+513727680+513796544+513966304+514153696+514243424
2984.78+514121920+513713312+512996640+512015840+510869760+509679808+508560032
2981.41+507588640+506782976+506102368+505458528+504745984+503875168+502801664
2978.03+501536480+500154240+498768352+497508864+496481312+495749568+495315168
2974.66+495118016+495055328+495011904+494887616+494627808+494231968+493756032
2971.29+493291136+492941376+492787904+492870272+493170336+493623552+494127328
2967.91+494578208+494894784+495041920+495038112+494950240+494872544+494898880
2964.54+495093088+495473408+496000832+496595584+497152224+497572896+497789184
2961.16+497787040+497599552+497302048+496986272+496735104+496597408+496577216
2957.79+496632768+496692096+496672448+496514464+496189792+495717344+495153312
2954.41+494578368+494067264+493672224+493402304+493221920+493058496+492825568
2951.04+492446144+491876896+491118592+490223136+489273856+488368480+487590912
2947.66+486988864+486559296+486249536+485970784+485624000+485120864+484416576
2944.29+483512672+482462528+481352928+480280096+479326400+478533024+477889568
2940.91+477339616+476792032+476148640+475332256+474307360+473091360+471752160
2937.54+470390528+469112416+468003456+467106272+466406848+465844640+465323296
2934.16+464741024+464015744+463104192+462016544+460806624+459555552+458349728
2930.79+457251232+456282912+455419392+454594688+453721920+452713792+451515456
2927.41+450113504+448545632+446885472+445226944+443656288+442229728+440956384
2924.04+439797120+438677568+437510656+436224160+434780000+433192896+431520224
2920.66+429851904+428283648+426886720+425690880+424672320+423758272+422853568
2917.29+421860896+420715584+419401664+417959456+416470784+415040768+413760000
2913.91+412685504+411818592+411105152+410453952+409757408+408928480+407918880
2910.54+406737088+405446208+404142880+402936000+401909504+401106688+400513824
2907.16+400068416+399674400+399235264+398677344+397970528+397141600+396257216
2903.79+395412032+394698880+394177344+393864384+393723456+393676352+393625440
2900.41+393481280+393187872+392739296+392181184+391597664+391088896+390743776
2897.04+390613888+390700000+390951200+391280320+391584128+391776480+391806016
2893.66+391674144+391427136+391147488+390921280+390821984+390877152+391070688
2890.29+391338112+391589280+391729792+391690880+391446752+391020672+390478400
2886.91+389910208+389402912+389017568+388765952+388612832+388478464+388264448
2883.54+387875168+387246112+386359424+385246880+383980736+382655200+381359360
2880.17+380156960+379068288+378072896+377113344+376120192+375031104+373815136
2876.79+372478208+371071680+369669120+368355648+367199744+366235328+365453792
2873.42+364802976+364205728+363580224+362858752+362012928+361056064+360040288
2870.04+359040672+358132800+357371680+356773056+356310112+355920896+355524640
2866.67+355047808+354442464+353704768+352874816+352025024+351242176+350601088
2863.29+350142080+349861472+349706528+349594784+349430304+349135136+348667264
2859.92+348034336+347287904+346512416+345798688+345220256+344813696+344566304
2856.54+344422784+344298432+344105248+343775360+343277600+342626816+341880064
2853.17+341117440+340419360+339845472+339417600+339112672+338870816+338613152
2849.79+338264288+337773152+337129728+336367456+335554880+334777312+334108832
2846.42+333597216+333244640+333010720+332820416+332587968+332235488+331720352
2843.04+331042912+330246304+329407712+328614464+327940352+327428096+327075072
2839.67+326837696+326643904+326413056+326081344+325618272+325034720+324378752
2836.29+323720416+323130176+322658560+322318496+322084384+321897920+321684128
2832.92+321379104+320942880+320377792+319723904+319050592+318433440+317935840
2829.54+317586880+317375616+317249280+317131872+316942912+316622144+316145632
2826.17+315533952+314844480+314158720+313556128+313096256+312798432+312638912
2822.79+312555392+312468832+312300576+311996416+311545088+310974400+310347488
2819.42+309744352+309237568+308871808+308649792+308533152+308451584+308323232
2816.04+308079296+307683648+307144416+306512576+305868096+305300064+304878368
2812.67+304635552+304556864+304583808+304627872+304598528+304423072+304071712
2809.29+303560320+302950400+302328032+301780832+301375136+301135552+301042944
2805.92+301037312+301038208+300965472+300764800+300422144+299964320+299452128
2802.54+298961216+298560864+298290848+298153984+298110688+298093536+298025664
2799.17+297842176+297510752+297039040+296474880+295893472+295376320+294989408
2795.79+294766752+294698944+294736736+294805920+294825152+294730336+294490176
2792.42+294115360+293653568+293176256+292756928+292451296+292281152+292226560
2789.05+292232960+292225984+292133024+291903712+291526400+291031328+290483264
2785.67+289963520+289548224+289286688+289185792+289209216+289286784+289333856
2782.30+289272224+289057568+288686656+288202784+287682112+287215264+286876448
2778.92+286712832+286720096+286850912+287024960+287151584+287153248+286990176
2775.55+286667968+286238752+285784288+285394464+285142464+285063200+285144928
2772.17+285332064+285540704+285682624+285689344+285534560+285233344+284845536
2768.80+284452384+284137088+283956640+283930496+284031392+284197984+284349248
2765.42+284412832+284342432+284133280+283822720+283479968+283184256+283003936
2762.05+282974688+283091360+283307424+283551744+283745312+283828992+283773568
2758.67+283592736+283335328+283071168+282868544+282775648+282803552+282926592
2755.30+283085888+283208832+283229248+283106784+282842176+282474304+282070016
2751.92+281711104+281466272+281374720+281434976+281604384+281812736+281981088
2748.55+282041216+281957088+281734080+281415776+281069632+280768704+280570176
2745.17+280496704+280532384+280625440+280703040+280695584+280554912+280271136
2741.80+279876992+279436512+279029088+278727712+278575168+278573152+278680832
2738.42+278825792+278924000+278906752+278736704+278420992+278008864+277576672
2735.05+277204352+276956320+276856800+276887392+276987904+277077216+277074784
2731.67+276923968+276610272+276165600+275660512+275184416+274821888+274629440
2728.30+274618560+274753152+274960256+275146432+275227296+275147680+274895200
2724.92+274506304+274054336+273629472+273313344+273159232+273176768+273329984
2721.55+273547136+273740672+273831680+273768864+273541920+273185504+272764224
2718.17+272359776+272043488+271859648+271814688+271874976+271980384+272058208
2714.80+272050336+271926272+271692640+271391424+271086464+270847072+270721440
2711.42+270728096+270843296+271011136+271154176+271199488+271096864+270835872
2708.05+270447648+269999648+269576992+269259552+269099136+269108064+269250496
2704.67+269459328+269648832+269742784+269694208+269499392+269196928+268858016
2701.30+268565088+268387440+268362352+268482784+268700064+268937440+269112384
2697.93+269159968+269051520+268803392+268470752+268132640+267870912+267743632
2694.55+267772304+267933376+268167920+268396064+268542848+268557024+268426816
2691.18+268184272+267890368+267620384+267442528+267394896+267474704+267641632
2687.80+267826032+267953168+267961696+267824368+267555728+267209872+266864768
2684.43+266599936+266477856+266521696+266710960+266985872+267264128+267461216
2681.05+267515904+267406288+267152176+266811712+266463600+266185680+266031952
2677.68+266020160+266126064+266293600+266449584+266528560+266488352+266325856
2674.30+266075248+265797984+265565776+265438368+265447424+265585104+265807472
2670.93+266044976+266223024+266285664+266203808+265992544+265698704+265394880
2667.55+265154016+265032512+265055360+265206352+265436592+265676960+265856832
2664.18+265923632+265857040+265673984+265421936+265166832+264971136+264879312
2660.80+264901728+265015200+265168032+265295088+265339792+265266720+265076000
2657.43+264802432+264506912+264258704+264113984+264101760+264212384+264400128
2654.05+264594320+264721424+264722848+264575872+264298864+263947792+263600624
2650.68+263338224+263218160+263261056+263443616+263703840+263958592+264127664
2647.30+264153936+264021008+263755552+263421472+263098144+262863472+262766816
2643.93+262819392+262991008+263220048+263430608+263556304+263557856+263432272
2640.55+263215296+262967616+262758096+262643264+262650560+262771552+262964752
2637.18+263166576+263310208+263346368+263256112+263054496+262789520+262525280
2633.80+262324528+262232528+262260736+262386880+262559536+262713376+262787968
2630.43+262745104+262580128+262323856+262032688+261775168+261609440+261568464
2627.05+261649728+261812528+261993040+262116960+262122016+261976064+261683328
2623.68+261285696+260850528+260450704+260147888+259972768+259920832+259951520
2620.30+260003008+260007968+259915648+259703264+259384864+259003776+258620688
2616.93+258297136+258074608+257964976+257944624+257963984+257958176+257870144
2613.55+257663840+257337648+256923440+256478416+256068272+255752064+255558560
2610.18+255484720+255490432+255511824+255478368+255332704+255046656+254631424
2606.80+254133904+253625968+253183952+252868768+252709104+252693024+252770752
2603.43+252868880+252910048+252834256+252614704+252265936+251838624+251405744
2600.06+251039600+250793744+250684272+250689536+250750096+250790800+250738832
2596.68+250546496+250203504+249742016+249225808+248735872+248344928+248100368
2593.31+248010176+248043040+248134624+248210400+248201568+248069888+247810080
2589.93+247457872+247071808+246720000+246457152+246309152+246267072+246287120
2586.56+246303824+246252128+246083232+245781984+245368544+244896736+244437552
2583.18+244058976+243808336+243697280+243697840+243751632+243783296+243723952
2579.81+243529104+243189952+242737248+242231952+241748240+241353488+241088256
2576.43+240957200+240927952+240940784+240925136+240821568+240596976+240253232
2573.06+239824432+239369136+238948592+238610752+238373776+238224176+238116768
2569.68+237991808+237789840+237471552+237029408+236488880+235904144+235341056
2566.31+234860336+234500656+234266000+234128144+234032192+233913184+233712400
2562.93+233396432+232962912+232442064+231888112+231361152+230915104+230577376
2559.56+230347328+230192128+230060576+229893200+229643824+229290496+228839456
2556.18+228325792+227799168+227315584+226914656+226613440+226398608+226232928
2552.81+226063264+225839264+225524800+225110336+224615216+224083168+223569680
2549.43+223126624+222788960+222562416+222423776+222326352+222212096+222028816
2546.06+221743568+221352096+220879104+220370944+219884832+219467584+219150000
2542.68+218929456+218779008+218649904+218486864+218246368+217905472+217472368
2539.31+216983200+216491392+216054624+215716672+215496496+215381456+215329712
2535.93+215283536+215181440+214977808+214653984+214223376+213727536+213224576
2532.56+212772704+212415920+212170080+212021136+211928224+211837120+211695152
2529.18+211467872+211147232+210753824+210330896+209931216+209600864+209365904
2525.81+209224256+209143968+209074960+208960288+208754048+208434720+208011136
2522.43+207520976+207020336+206570896+206219152+205986176+205862688+205809792
2519.06+205770576+205685568+205511856+205230768+204854992+204424000+203992608
2515.68+203613744+203324832+203133456+203018464+202933184+202818640+202622016
2512.31+202310288+201880736+201360608+200804528+200273424+199823152+199486272
2508.94+199266048+199133568+199037920+198918992+198726688+198432640+198037568
2505.56+197569136+197075680+196608400+196209344+195896240+195663120+195479104
2502.19+195300624+195083840+194799232+194439584+194022000+193581136+193158832
2498.81+192791952+192498704+192275040+192092816+191909440+191679024+191366288
2495.44+190956176+190459552+189908288+189348592+188827248+188378800+188017984
2492.06+187732672+187492160+187253136+186974160+186627008+186205104+185724992
2488.69+185222688+184739520+184316144+183974608+183716336+183517280+183337632
2485.31+183130880+182857664+182495936+182048992+181541584+181015824+180518064
2481.94+180084240+179733376+179458144+179230288+179006208+178742176+178405088
2478.56+177985296+177496960+176977152+176474112+176034608+175691024+175448592
2475.19+175286976+175161920+175017520+174800928+174478336+174041168+173510864
2471.81+172934944+172371824+171875360+171484864+171209616+171029008+170899824
2468.44+170764544+170570240+170281568+169889072+169413008+168894864+168388288
2465.06+167939536+167578960+167310000+167109408+166934528+166736992+166476064
2461.69+166132080+165710912+165244816+164778752+164361376+164027584+163788608
2458.31+163627664+163504384+163368080+163169120+162877984+162490752+162032224
2454.94+161549152+161097520+160725184+160457936+160292480+160196704+160116720
2451.56+159994848+159782192+159455040+159020512+158513424+157987520+157500448
2448.19+157097984+156800960+156601904+156465584+156342448+156180304+155939248
2444.81+155603440+155184480+154715344+154243072+153813072+153458192+153188480
2441.44+152990912+152831488+152669296+152464096+152192608+151851952+151461312
2438.06+151057296+150681200+150367552+150133136+149972032+149856288+149741264
2434.69+149579600+149333504+148986416+148546480+148047696+147537696+147068704
2431.31+146681296+146393184+146193312+146047264+145903680+145710928+145428544
2427.94+145042352+144566432+144041008+143520496+143058512+142695360+142444016
2424.56+142288016+142186288+142084176+141929024+141683712+141336992+140904304
2421.19+140423328+139941072+139499424+139124368+138816688+138555488+138303488
2417.82+138020592+137677120+137262848+136792048+136298400+135825456+135414304
2414.44+135088880+134849632+134671216+134508576+134311120+134033728+133652888
2411.07+133169976+132616048+132038680+131493648+131024480+130657632+130388072
2407.69+130185984+130002952+129784712+129486864+129087600+128592656+128032248
2404.32+127454960+126913752+126449696+126084120+125812112+125604960+125417424
2400.94+125203448+124926656+124572232+124148600+123684152+123219336+122793656
2397.57+122432960+122142056+121904168+121682832+121436768+121128016+120737120
2394.19+120265832+119740792+119202544+118698960+118267984+117929224+117677512
2390.82+117484688+117306160+117094504+116810712+116436440+115979096+115466816
2387.44+114944984+114458912+114044624+113718208+113470376+113271064+113077384
2384.07+112844776+112541232+112154072+111695280+111194808+110696296+110239728
2380.69+109854336+109547368+109304304+109089840+108862216+108578720+108212208
2377.32+107755360+107223528+106650984+106079152+105548776+105087240+104701920
2373.94+104379632+104091072+103797584+103463640+103066784+102603688+102089512
2370.57+101555424+101040600+100578304+100190816+99880280+99630072+99406416
2367.19+99170080+98884360+98526664+98092776+97599912+97081536+96578288+96128000
2363.34+95755288+95466432+95245936+95063880+94882736+94669640+94403552+94085656
2359.48+93733512+93379656+93059504+92800104+92613688+92488368+92395872+92295664
2355.62+92148240+91925840+91622184+91255288+90860824+90484824+90170496+89945216
2351.77+89811824+89748888+89716320+89664136+89548328+89341688+89039216+88659912
2347.91+88239600+87820472+87438312+87111496+86838704+86598448+86356264+86077600
2344.05+85736608+85326912+84862248+84374520+83905232+83493760+83166288+82928072
2340.19+82763744+82636472+82501928+82317032+82051952+81698288+81269336+80798424
2336.34+80328928+79902424+79548064+79276000+79072968+78909344+78744456+78542176
2332.48+78276952+77943520+77558192+77151904+76765592+76433360+76176712+75995592
2328.62+75869648+75763648+75637720+75457152+75205448+74884984+74519160+74145512
2324.77+73803976+73524616+73321832+73187216+73094680+73004696+72878496+72685952
2320.91+72415952+72078320+71700272+71319496+70973512+70688520+70474120+70319776
2317.05+70199248+70077464+69921888+69710720+69437344+69114072+68766824+68426272
2313.20+68120624+67867184+67666016+67502120+67348264+67174096+66955028+66678832
2309.34+66351268+65991324+65629324+65297316+65019276+64805660+64648568+64526348
2305.48+64407436+64260480+64061808+63803496+63493220+63153720+62814580+62505272
2301.63+62246056+62040180+61878524+61737524+61588200+61406052+61175004+60894600
2297.77+60578320+60250488+59938204+59664792+59440200+59261980+59110956+58961696
2293.91+58785464+58561088+58279992+57949252+57590272+57233400+56909168+56640432
2290.05+56436552+56290152+56179880+56073864+55940528+55757012+55513188+55215752
2286.20+54886624+54554580+54249996+53993004+53790048+53631364+53493036+53345560
2282.34+53161092+52924228+52634316+52306988+51971348+51658120+51394144+51190656
2278.48+51042916+50927624+50811184+50658288+50443448+50156688+49808144+49425832
2274.63+49048040+48710604+48440496+48245176+48111068+48008768+47898592+47744636
2270.77+47521940+47225344+46869200+46484636+46110716+45782260+45521672+45333428
2266.91+45202544+45099280+44988452+44838420+44630992+44363316+44052848+43725972
2263.06+43414488+43144908+42930716+42768632+42639780+42514192+42361052+42155484
2259.20+41886600+41558644+41193176+40819756+40469084+40164268+39916656+39720388
2255.34+39555484+39393940+39209012+38980936+38704388+38388748+38054936+37730268
2251.48+37441252+37203512+37017604+36870248+36737108+36587488+36396600+36150252
2247.63+35849232+35509960+35157904+34822596+34527452+34282824+34083932+33910580
2243.77+33734480+33526428+33264642+32942198+32568940+32168576+31774968+31419760
2239.91+31126778+30902730+30737706+30606710+30476574+30315112+30100960+29827402
2236.06+29505764+29159520+28818854+28511652+28252506+28041956+27864340+27692622
2232.20+27496842+27253124+26951160+26598562+26218290+25843224+25507162+25233840
2228.34+25031268+24887590+24774778+24655352+24491744+24258806+23948054+23572304
2224.49+23161002+22752548+22385494+22085226+21860674+21700382+21574388+21446234
2220.63+21280412+21052200+20754640+20399758+20015048+19635146+19293626+19011582
2216.77+18794450+18630418+18493738+18351698+18175744+17946572+17660720+17330556
2212.92+16979558+16634380+16319401+16047868+15818067+15615208+15415290+15192073
2209.06+14926097+14607982+14244809+13857381+13473431+13122453+12827432+12597729
2205.20+12427022+12297174+12179165+12044832+11871933+11648282+11378029+11076770
2201.34+10766942+10471802+10207941+9980591+9782518+9596092+9398444+9168588
2197.49+8893610+8573349+8219536+7854287+7502415+7186183+6918103+6695721+6505828
2193.15+6323908+6124148+5885703+5598402+5268441+4913506+4560801+4239091+3968435
2188.81+3756743+3594469+3457791+3314683+3134068+2892999+2584788+2219455+1823805
2184.47+1431425+1074937+776497+542874+361740+207643+47879-145677-391549-690454
2179.65-1028585-1377439-1708351-1995654-2228957-2413862-2571591-2733582
2175.79-2930143-3184314-3503876-3877824-4282152-4683775-5050384-5360096
2171.94-5606634-5801348-5968386-6140974-6347311-6607977-6927582-7294036
2168.08-7683021-8066720-8418269-8722312-8979064-9200399-9411148-9637976
2164.22-9901797-10212955-10566426-10942388-11313636-11652250-11937177-12163085
2160.36-12339610-12492275-12653240-12853916-13116085-13443227-13821638
2156.99-14222294-14609005-14948750-15220533-15423091-15574165-15706779
2153.62-15860591-16068230-16349403-16702411-17105094-17521488-17912172
2150.24-18245126-18504736-18697668-18850080-19000452-19187066-19439344
2146.87-19766820-20157126-20578594-20988734-21348230-21630478-21829268
2143.49-21961902-22064588-22181224-22351846-22601960-22936672-23334630
2140.12-23760746-24170786-24527716-24809756-25016210-25169658-25308060
2136.74-25474126-25700650-26005748-26382044-26802202-27225176-27607034
2133.37-27915604-28138300-28285586-28391514-28501460-28660784-28902028
2129.99-29235756-29646920-30100376-30548034-30944792-31259824-31486058
2126.62-31641246-31763740-31900830-32095764-32374436-32737708-33163090
2123.24-33607504-34022256-34364372-34610932-34764168-34850712-34916480
2119.87-35011396-35176980-35435248-35783612-36194512-36624596-37027276
2116.49-37366908-37625180-37809948-37948872-38084328-38258132-38502076
2113.12-38825404-39215160-39638784-40052124-40414704-40699520-40900800
2109.74-41037816-41147056-41274072-41458588-41724528-42071308-42474940
2106.37-42894236-43281528-43598252-43822888-43961460-44043508-44115776
2102.99-44228244-44421280-44713876-45098368-45543016-46000204-46420184
2099.62-46766104-47021200-47194736-47318908-47438376-47596504-47823460
2096.24-48128968-48496000-48890932-49270788-49597124-49846348-50018308
2092.87-50135940-50237692-50366860-50559140-50832916-51183268-51582032
2089.49-51989524-52360336-52661172-52876228-53014180-53104756-53191008
2086.12-53316508-53515272-53802032-54167192-54581744-55003564-55389664
2082.74-55709876-55951112-56124200-56259708-56397000-56575428-56821380
2079.37-57140404-57515204-57910020-58281940-58591516-58816340-58957352
2075.99-59040952-59111452-59219792-59409020-59701688-60093444-60551412
2072.62-61024476-61455308-61797196-62027652-62153156-62209196-62250908
2069.24-62337016-62513336-62800236-63187096-63635392-64088932-64491384
2065.87-64801516-65004364-65116948-65182168-65254892-65387828-65614708
2062.50-65941584-66345348-66778464-67187368-67524256-67763320-67908352
2059.12-67989864-68058352-68167864-68361184-68656992-69044728-69487608
2055.75-69933392-70329000-70635304-70839704-70957392-71027712-71102480
2052.37-71232416-71449032-71760808-72146880-72565584-72965864-73301512
2049.00-73545560-73696800-73780688-73842528-73934576-74100528-74364880
2045.62-74724384-75150384-75595792-76010032-76351592-76599072-76760304
2042.25-76864240-76958408-77090704-77299056-77596728-77972680-78391424
2038.87-78805440-79166408-79442296-79623072-79726280-79791960-79870024
2035.50-80008448-80238352-80566608-80972984-81417624-81850296-82227696
2032.12-82521784-82730112-82874816-82996192-83139456-83341880-83622328
2028.75-83973360-84365784-84753872-85091592-85345272-85503136-85581448
2025.37-85619544-85669984-85784088-85998152-86321848-86736952-87199520
2022.00-87654720-88050096-88350648-88548880-88666648-88748848-88850928
2018.62-89021640-89291048-89659624-90098640-90558096-90981040-91319696
2015.25-91548120-91673040-91728376-91769480-91854856-92030504-92317664
2011.87-92706248-93155632-93608928-94007536-94307304-94490752-94573704
2008.50-94599296-94626656-94715384-94907896-95218008-95628296-96094544
2005.12-96557320-96959728-97261384-97450608-97547400-97597112-97658192
2001.75-97785592-98015704-98356688-98784864-99253136-99702752-100080408
1998.37-100353336-100518424-100603672-100660448-100750400-100926624-101218960
1995.00-101626112-102115000-102629560-103106456-103493584-103762936-103919832
1991.62-104000536-104062760-104166984-104360776-104663976-105063432-105517288
1988.25-105966320-106353432-106638312-106810232-106890608-106927496-106981944
1984.87-107108248-107340984-107683424-108108528-108567240-109001848-109365456
1981.50-109632592-109807304-109922264-110026960-110172808-110400408-110724464
1978.12-111131752-111584192-112030616-112421088-112720992-112920472-113037808
1974.75-113113536-113199488-113344352-113579272-113911856-114323160-114773128
1971.38-115212760-115596720-115896704-116108416-116251448-116363168-116489232
1968.00-116669224-116926296-117259544-117647336-118049368-118422784-118732072
1964.63-118958592-119107232-119204072-119290040-119407576-119589832-119852120
1961.25-120185616-120562488-120942216-121284792-121561272-121763264-121904216
1957.88-122017440-122145112-122327208-122588352-122931944-123337424-123764152
1954.50-124164432-124494952-124730112-124868904-124936320-124977768-125046568
1951.13-125189976-125435856-125784320-126208488-126660720-127084656-127434976
1947.75-127685480-127841368-127934920-128020392-128154272-128381840-128721760
1944.38-129159704-129650352-130130040-130533152-130809888-130941648-130945928
1941.00-130871232-130786072-130757112-130834392-131035872-131346944-131723728
1937.63-132107072-132441560-132689544-132841504-132918504-132961456-133022368
1934.25-133144184-133351696-133642136-133989448-134350704-134679248-134937488
1930.88-135108528-135198912-135235472-135260432-135316816-135439808-135648544
1927.50-135941296-136297488-136684336-137064592-137407760-137693168-137918320
1924.13-138096896-138253616-138420544-138626000-138887840-139209456-139577008
1920.75-139963888-140335184-140658720-140912400-141088752-141199056-141268496
1917.38-141329584-141412464-141537040-141704800-141903184-142106992-142289168
1914.00-142432016-142533376-142609232-142691024-142815488-143012704-143295568
1910.63-143652144-144048544-144435360-144761264-144988624-145105104-145126496
1907.25-145097296-145073856-145112576-145253648-145508288-145857040-146255456
1903.88-146646608-146977328-147211664-147342720-147391376-147401712-147427152
1900.50-147516832-147700736-147985120-148347584-148748224-149137920-149472672
1897.13-149723904-149885392-149973920-150024512-150079008-150177344-150346384
1893.75-150592224-150900960-151243456-151582160-151881216-152117360-152284512
1890.38-152396208-152481040-152573648-152706784-152899888-153152416-153446304
1887.00-153747536-154018496-154227488-154359296-154421248-154441152-154460896
1883.63-154524688-154666112-154896768-155204320-155553104-155894080-156180192
1880.26-156379088-156482416-156510912-156507200-156524560-156612704-156800096
1876.88-157088224-157449424-157833584-158184672-158455376-158622688-158695728
1873.51-158714416-158738320-158831888-159044432-159396080-159870768-160418096
1870.13-160966080-161437440-161771248-161936704-161941232-161828192-161663232
1866.76-161516400-161445168-161477264-161607456-161800640-162005568-162170144
1863.38-162258304-162262336-162202736-162123456-162077104-162108000-162238992
1860.01-162463840-162748240-163040320-163285328-163443408-163499296-163466736
1856.63-163385856-163309680-163288192-163355664-163518768-163758512-164033120
1853.26-164293920-164497504-164619744-164660480-164644720-164615056-164618896
1849.88-164696528-164870224-165140112-165483008-165861360-166230912-166553312
1846.51-166802816-166971920-167070016-167119408-167148032-167179680-167227216
1843.13-167290656-167355760-167401632-167406992-167358272-167258352-167126448
1839.76-166996864-166909472-166900768-166992016-167180352-167438288-167718272
1836.38-167965248-168130528-168186912-168138560-168021968-167897488-167833056
1833.01-167884928-168082016-168413744-168831680-169260880-169620272-169843376
1829.63-169898528-169797264-169591856-169361184-169186992-169131984-169222096
1826.26-169438576-169724560-170000624-170187760-170228352-170103376-169837536
1822.88-169491072-169143200-168870320-168726512-168730352-168860448-169064608
1819.51-169274928-169425040-169470848-169397632-169225616-169000912-168782016
1816.13-168623488-168561440-168604576-168732688-168903920-169065952-169172448
1812.76-169193680-169123296-168980672-168802752-168632016-168504400-168436496
1809.38-168422944-168435152-168431648-168370752-168223056-167981984-167669232
1806.01-167328816-167017616-166790096-166682080-166700848-166820560-166988000
1802.63-167134304-167192736-167114720-166882864-166513280-166053184-165563616
1799.26-165105584-164721856-164426400-164202848-164010304-163799104-163525296
1795.88-163165856-162725568-162235632-161743360-161294960-160920880-160621360
1792.51-160365136-160094096-159740592-159245504-158576576-157739952-156779888
1789.14-155767792-154784400-153897296-153143968-152520928-151987200-151474112
1785.76-150906704-150223360-149393264-148423312-147355424-146252400-145177760
1782.39-144180544-143276192-142444784-141635216-140779088-139808208-138673392
1779.01-137356736-135875888-134279088-132631544-131000408-129434112-127951224
1775.64-126534784-125133752-123675344-122080496-120281184-118236600-115939080
1772.26-113416760-110719952-107907376-105024936-102088992-99080920-95946856
1768.89-92608624-88984688-85012544-80661800-75945968-70912880-65629896
1765.51-60159772-54536052-48746116-42729828-36386364-29600308-22263874
1762.14-14303335-5692578+3547228+13363977+23699688+34515740+45815352+57646904
1758.28+70099488+83278384+97283152+112178400+127982096+144661456+162147136
1754.90+180354128+199207840+218663296+238716576+259400384+280771936+302891584
1751.53+325798048+349493920+373931904+399019296+424628672+450617376+476848416
1748.16+503208608+529619392+556036992+582441408+608820096+635147968+661370304
1744.78+687390976+713078912+738281856+762848576+786656128+809628608+831743424
1741.41+853025152+873521536+893273152+912285696+930512640+947850624+964161216
1738.03+979298432+993147968+1005654528+1016836928+1026783296+1035625728
1735.14+1043506048+1050535872+1056768256+1062184448+1066702656+1070205760
1732.25+1072577920+1073741824+1073681664+1072452800+1070163776+1066951808
1729.35+1062946560+1058238272+1052858944+1046780608+1039935040+1032243072
1726.46+1023651712+1014161344+1003841344+992824960+981285312+969403200
1723.57+957331968+945174208+932971136+920716160+908381440+895950336+883448000
1720.19+870961984+858639424+846672640+835270016+824622848+814875072+806108928
1716.82+798342400+791540928+785642560+780581824+776312960+772821568+770130240
1713.44+768286080+767345152+767350784+768313792+770197888+772916288+776334656
1710.07+780295168+784636224+789221824+793960512+798812288+803782272+808896576
1706.69+814172608+819586432+825049216+830405504+835444544+839935232+843663232
1703.32+846467904+848262912+849038080+848837952+847729856+845762432+842934656
1699.94+839174080+834345728+828274240+820783872+811736832+801066176+788788736
1696.57+775002048+759860608+743541312+726206016+707968384+688881472+668941120
1693.19+648112960+626368832+603726656+580274112+556180864+531684480+507055200
1689.82+482553568+458387584+434684192+411487872+388776704+366500640+344621344
1686.44+323145536+302138848+281719040+262031056+243211376+225351024+208474624
1683.07+192536000+177431632+163030368+149204064+135856032+122933928+110431952
1679.69+98378744+86818712+75789848+65310720+55370540+45932380+36939964+28333984
1675.84+20060148+12082004+4383217-3034828-10158724-16970940-23461266-29629738
1671.98-35488612-41061588-46377864-51463064-56337164-61005844-65464824
1668.61-69701608-73703912-77468736-81007648-84352016-87547440-90648984
1665.23-93709464-96767648-99838904-102911800-105949784-108900200-111705264
1661.86-114319176-116716768-118901272-120904104-122779176-124592840-126412288
1658.48-128293288-130273000-132364536-134556528-136816096-139093568-141329920
1655.11-143461472-145430016-147187584-148705536-149975264-151012592-151852304
1651.73-152543392-153138064-153683536-154211616-154736976-155252544-155733728
1648.36-156142096-156431680-156555728-156471472-156144448-155549904-154675216
1644.98-153518560-152090656-150415760-148532576-146493792-144363680-142214320
1641.61-140119072-138144640-136346496-134765728-133428496-132349464-131538088
1638.23-131000928-130745288-130778880-131102688-131708992-132575064-133661112
1634.86-134913552-136273600-137687536-139117424-140549760-141997952-143497328
1631.48-145094752-146834368-148742624-150819760-153034512-155329968-157636544
1628.11-159888416-162040656-164079408-166025040-167925088-169837536-171814736
1624.73-173884448-176040480-178240752-180419504-182504048-184436496-186191104
1621.36-187783664-189270960-190735072-192262400-193918400-195732592-197684704
1617.98-199707344-201705440-203575056-205231696-206628544-207770544-208710560
1614.61-209534352-210341424-211218064-212221552-213366784-214626304-215940976
1611.23-217237824-218448080-219526432-220459088-221265552-221991744-222694192
1607.86-223426512-224222560-225091792-226016128-226958432-227874928-228726640
1604.48-229492352-230172448-230789728-231380448-231983600-232629392-233328368
1601.11-234069344-234822800-235547872-236207248-236776544-237253408-237660080
1597.73-238036384-238430656-238884832-239421984-240040736-240712736-241391824
1594.36-242024176-242566128-242992752-243308640-243543504-243747040-243973696
1590.99-244268512-244653744-245123920-245647440-246173840-246650880-247035232
1587.61-247309888-247485792-247600112-247707584-247865296-248115488-248474528
1584.24-248928304-249433728-249931872-250363168-250684704-250884304-250986512
1580.86-251045840-251135632-251329312-251677920-252197696-252861664-253602944
1577.49-254329648-254946016-255375760-255582384-255578576-255425440-255218192
1574.11-255061056-255044112-255219776-255592976-256116832-256710832-257277584
1570.74-257729776-258010928-258110288-258063536-257940016-257823760-257784592
1567.36-257863264-258056432-258323328-258595568-258804096-258900560-258876720
1563.99-258769856-258656176-258631216-258781056-259159888-259767744-260549584
1560.61-261404032-262205072-262834272-263206608-263291312-263117968-262762608
1557.24-262325104-261901344-261559888-261328704-261197088-261127104-261074624
1553.86-261005872-260913184-260814176-260745600-260744960-260837344-261017856
1550.49-261252416-261485840-261656480-261717632-261653024-261485024-261269280
1547.11-261082176-260997056-261066576-261306016-261691008-262162240-262644496
1543.74-263065072-263370160-263538256-263579648-263528176-263426512-263310176
1540.36-263198272-263085536-262949040-262758048-262488592-262135936-261721744
1536.99-261290864-260903568-260619616-260484144-260512528-260685040-260948496
1533.61-261225936-261435408-261508224-261406720-261134512-260735968-260286224
1530.24-259872320-259571920-259433712-259463840-259625728-259846128-260037968
1526.86-260120784-260043808-259801648-259433552-259012304-258624272-258343696
1523.49-258211520-258222256-258324752-258437184-258466064-258336432-258010480
1520.11-257498640-256854992-256161568-255504240-254951088-254529888-254225456
1516.74-253985584-253733776-253396560-252918560-252282816-251510464-250657408
1513.36-249796576-249001376-248326880-247798528-247407232-247112528-246852928
1509.99-246558768-246163664-245614656-244877696-243937344-242796448-241467968
1506.61-239972176-238329904-236557328-234664416-232657008-230534016-228294480
1503.24-225941632-223479152-220918976-218275696-215559616-212772480-209901696
1499.87-206914160-203759024-200371200-196685616-192647664-188228336-183433216
1496.49-178303088-172909392-167337520-161672464-155977696-150288688-144608416
1493.12-138915104-133176184-127367320-121487680-115564888-109659160-103847664
1489.74-98212008-92817376-87701920-82871280-78303896-73966560-69828992
1486.37-65880684-62137944-58641932-55446844-52602992-50138108-48044784
1482.99-46278212-44763840-43412720-42146020-40912960-39703260-38549520
1479.62-37514420-36673368-36090748-35802364-35805456-36057616-36491016
1476.24-37026908-37598996-38162140-38702916-39231692-39772824-40344992
1472.87-40947804-41554916-42111384-42544560-42778772-42753032-42433420
1469.49-41819936-40945444-39863084-38632580-37304884-35906508-34437268
1466.12-32867598-31150254-29234840-27085662-24697166-22100590-19367950
1462.74-16599375-13908240-11398897-9146318-7181105-5482442-3985048-2592422
1458.89-1202650+268013+1861668+3564966+5309285+6982849+8456090+9605653+10341085
1454.55+10615379+10427072+9809327+8811174+7477519+5833998+3881868+1601028
1450.69-1033984-4035405-7386564-11033775-14887302-18837012-22774192-26616130
1446.83-30323308-33908144-37426936-40961956-44594020-48378604-52326644
1443.46-56401496-60530620-64625812-68609208-72438776-76120760-79706280
1440.08-83276528-86919000-90695752-94625424-98670488-102744176-106731056
1436.71-110515664-114010920-117183328-120060368-122722008-125279560-127844624
1433.33-130499048-133273864-136140064-139016352-141788352-144338704-146574688
1429.96-148454304-149992864-151259344-152355488-153388368-154438800-155542320
1426.58-156678592-157778192-158743024-159474304-159902880-160010336-159835776
1423.21-159467760-159019872-158602656-158288704-158097792-157985824-157861872
1419.83-157608576-157117040-156315040-155188784-153785872-152200688-150549424
1416.46-148939104-147439008-146067968-144794368-143548816-142251232-140835776
1413.08-139271488-137572560-135793904-134014760-132316088-130758832-129367584
1409.71-128127504-126991048-125896568-124787376-123630072-122424880-121205488
1406.33-120028280-118955320-118034856-117287032-116695336-116212528-115770760
1402.96-115300496-114746120-114080728-113307272-112456280-111569800-110685416
1399.58-109817544-108948160-108022992-106960376-105667384-104059104-102080272
1396.21-99716208-96998776-94001928-90825832-87578624-84360136-81246960
1392.84-78289720-75520000-72960176-70642064-68613312-66946780-65732964
1389.46-65065304-65023484-65649544-66937144-68829392-71222096-73988232
1386.09-76997248-80141192-83347888-86586968-89864728-93206184-96631576
1382.71-100141568-103699488-107233320-110643584-113822992-116681328-119165584
1379.34-121274104-123055912-124603320-126024088-127417296-128848368-130332464
1375.96-131829200-133258128-134518752-135519744-136204256-136570816-136673424
1372.59-136613664-136514656-136493648-136636032-136977744-137504992-138162048
1369.21-138876592-139584848-140254304-140895200-141562048-142333216-143293024
1365.84-144499040-145967520-147660064-149491472-151347456-153110192-154686032
1362.46-156025424-157131536-158054016-158870944-159664736-160494432-161382832
1359.09-162307344-163209488-164012992-164644048-165054448-165234464-165214704
1355.71-165058640-164844240-164640368-164492640-164407456-164353952-164275136
1352.34-164103392-163780992-163279136-162604368-161799136-160929280-160066352
1348.96-159268048-158561584-157935632-157345824-156726800-156011424-155150000
1345.59-154128240-152970848-151737520-150506624-149356016-148338256-147469360
1342.21-146721088-146026736-145300512-144457264-143433584-142204960-140788800
1338.84-139238768-137626464-136020864-134468144-132977032-131518728-130034560
1335.46-128454080-126715688-124785832-122667072-120400368-118052992-115698632
1332.09-113397712-111179808-109036592-106922792-104773384-102519992-100113616
1328.71-97540576-94826720-92034024-89244072-86537088-83973008-81577648
1325.34-79338888-77215544-75155008-73113072-71073816-69058272-67126864
1321.96-65363348-63857352-62681224-61868644-61405332-61232472-61259164
1318.59-61381512-61508500-61577820-61564204-61479128-61354824-61225664
1315.21-61108320-60986848-60809644-60494600-59946616-59078448-57830488
1311.84-56184768-54169532-51847696-49303640-46616932-43845352-41011684
1308.46-38097784-35058760-31836394-28381634-24672410-20724940-16593292
1305.09-12360681-8119356-3950856+90637+3989073+7762918+11454314+15108081
1301.23+18751930+22380864+25947494+29367848+32535652+35343596+37705264+39573924
1297.38+40948652+41872536+42419340+42673480+42711960+42589716+42335212+41953004
1293.52+41438888+40794804+40043852+39239288+38463688+37817108+37403088+37305872
1289.66+37576164+38222168+39209012+40471476+41932432+43521184+45191900+46931688
1285.81+48760672+50719676+52856392+55204652+57772652+60535328+63436764+66402584
1281.95+69357496+72240736+75020240+77698080+80305000+82888000+85494256+88155040
1278.09+90872280+93617296+96334552+98957000+101421928+103686400+105740632
1274.72+107606768+109335376+110988680+112625720+114284928+115976280+117678016
1271.34+119344904+120921992+122362144+123637472+124750296+125731656+126632112
1267.97+127508224+128405960+129348040+130328640+131312296+132246888+133076048
1264.59+133756080+134265248+134611312+134826064+134955344+135046320+135131328
1261.22+135222240+135304304+135343712+135296480+135122704+134797536+134318448
1257.84+133706456+132998656+132239800+131468424+130709888+129968536+129228944
1254.47+128462904+127637600+126726456+125715296+124607032+123421128+122185264
1251.09+120930144+119678848+118444024+117221320+115996048+114744288+113442528
1247.72+112073216+110629304+109116304+107550192+105952152+104343592+102740768
1244.34+101148528+99564848+97976136+96368136+94726056+93042496+91318480
1240.97+89565688+87803728+86054080+84337464+82667800+81049664+79477592+77937456
1237.11+76412136+74883912+73341368+71779760+70203728+68624424+67055372+65509836
1233.25+63995628+62514100+61059740+59621052+58184468+56737988+55274616+53791496
1229.40+52291864+50782028+49269900+47760004+46255208+44753012+43248812+41736300
1225.54+40210912+38670204+37116232+35554844+33994064+32443778+30913656+29412172
1221.68+27947882+26528828+25163220+23862456+22639418+21508940+20488282+19594870
1217.83+18844794+18254340+17837746+17609094+17582246+17771324+18192612+18862706
1213.97+19800700+21023310+22548124+24390502+26564170+29079140+31943522+35163240
1210.11+38739812+42672712+46958468+51588320+56553216+61839368+67432872+73318512
1206.26+79480624+85903704+92572472+99468160+106571304+113859056+121304176
1202.88+128879096+136553024+144298432+152089824+159906624+167732640+175556560
1199.51+183369376+191164160+198933184+206667968+214359808+221999488+229580576
1196.13+237097696+244551056+251942704+259277536+266559504+273791264+280971936
1192.76+288097280+295161184+302155872+309075552+315919872+322691424+329398496
1189.38+336052800+342666720+349249888+355808512+362342816+368847392+375312256
1186.01+381726656+388079584+394363616+400575808+406716928+412792864+418808608
1182.63+424769504+430678240+436533152+442329248+448058560+453711680+459279872
1179.26+464758432+470144064+475439072+480646464+485771200+490817888+495788320
1175.88+500681568+505493664+510219264+514851584+519386080+523819840+528151616
1172.51+532382624+536514496+540547456+544478784+548302464+552009600+555588928
1169.13+559027904+562317312+565450304+568424064+571239808+573900544+576408896
1165.76+578765824+580966272+583003200+584863808+586534848+588002240+589254912
1162.38+590286336+591093248+591676672+592038464+592179968+592100928+591797312
1159.01+591263232+590490688+589474240+588208256+586693056+584930496+582925952
1155.63+580684928+578211648+575506944+572568768+569390528+565965824+562286912
1152.26+558349440+554152320+549699904+544997504+540054400+534877888+529475360
1148.88+523849664+518001984+511930048+505632800+499109984+492363936+485400448
1145.51+478229248+470861792+463309760+455586592+447702848+439668768+431492096
1142.13+423182016+414745696+406192928+397533792+388780064+379945024+371041760
1138.76+362084544+353086848+344062976+335027648+325995968+316983328+308006816
1135.38+299082464+290227520+281457792+272788096+264232144+255801744+247508176
1132.01+239361088+231369664+223541520+215884992+208405552+201109072+193998592
1128.64+187075280+180338976+173786496+167412032+161207296+155163088+149267920
1125.26+143510080+137879776+132368232+126968808+121678192+116495152+111419264
1121.89+106450344+101586544+96823640+92154664+87569632+83056952+78604672
1118.51+74202936+69844448+65523536+61239036+56990216+52775844+48594044+44439788
1114.65+40304196+36175800+32041830+27888806+23705364+19482156+15215494+10905011
1110.80+6554655+2171789-2233422-6650830-11069477-15480276-19875350-24248560
1106.94-28595666-32912472-37195552-41440444-45640904-49790408-53880504
1103.57-57902840-61850204-65717964-69503288-73205696-76828416-80373912
1100.19-83847120-87249552-90582536-93845616-97036944-100154152-103197136
1096.82-106166856-109065256-111895872-114662160-117366184-120007568-122583008
1093.44-125087840-127515672-129862784-132125560-134305920-136409152-138442368
1090.07-140416256-142337632-144212672-146042512-147823440-149549040-151209280
1086.69-152795312-154299888-155718720-157051680-158302848-159476496-160578144
1083.32-161611664-162577840-163474960-164299296-165047072-165715264-166304448
1079.94-166817888-167262368-167647136-167980640-168269888-168518128-168724832
1076.57-168885872-168994048-169043040-169027488-168947232-168804432-168606256
1073.19-168361728-168080016-167768816-167432256-167072208-166688448-166278816
1069.82-165842432-165381120-164898896-164402080-163899088-163395920-162897984
1066.44-162405904-161918048-161427696-160928768-160412896-159874800-159310944
1063.07-158720144-158103344-157462560-156800432-156118816-155419872-154706448
1059.69-153982720-153255776-152534272-151829488-151155680-150525232-149949536
1056.32-149437632-148995504-148625568-148326576-148097648-147936496-147840560
1052.94-147809552-147842768-147940896-148104944-148335536-148632864-148998880
1049.57-149433408-149939536-150518640-151173600-151905728-152715232-153599632
1046.19-154555072-155573680-156646400-157762688-158912672-160087040-161278160
1042.82-162479952-163689040-164901584-166115664-167328320-168536688-169738768
1039.44-170931568-172113296-173283952-174444560-175596160-176740416-177879024
1036.07-179012640-180139792-181259008-182366464-183457744-184529696-185579424
1032.69-186606464-187610192-188591648-189552352-190493328-191415936-192317920
1029.32-193199616-194057616-194890304-195695760-196471904-197218416-197934368
1025.94-198619008-199270528-199885056-200457888-200981536-201448832-201851488
1022.57-202181520-202432928-202601168-202682992-202676112-202580384-202393328
1019.19-202114240-201741136-201271632-200703024-200036368-199272000-198413248
1015.82-197467008-196441504-195348416-194199600-193009952-191792512-190563408
1012.45-189337312-188128912-186952624-185821440-184746224-183736512-182798912
1009.07-181937536-181155808-180455360-179839440-179309488-178869424-178521312
1005.70-178267680-178106272-178034784-178042784-178118752-178246400-178409120
1002.32-178587936-178766400-178931056-179069280-179171120-179227440-179228768
998.95-179166640-179031072-178813104-178505184-178102288-177603344-177008928
995.57-176324752-175557200-174714304-173802112-172825840-171788528-170692080
992.20-169535856-168318912-167039232-165696160-164287376-162811680-161266384
988.82-159650768-157962080-156199056-154362352-152452480-150472112-148423984
985.45-146311936-144139952-141910512-139625568-137286432-134893392-132447032
982.07-129948336-127397552-124797192-122148552-119454872-116718328-113942344
978.70-111129664-108284448-105410024-102510056-99587912-96645064-93682800
975.32-90700848-87699456-84677816-81637248-78581352-75515032-72447848-69390304
971.47-66354812-63354020-60400864-57507480-54685008-51945192-49299668-46759772
967.61-44338348-42046460-39894136-37888324-36030856-34318628-32742996-31292690
963.75-29952346-28708706-27549378-26466488-25455980-24517446-23653768-22867458
959.89-22161204-21533276-20981014-20497694-20074182-19701330-19370712-19076462
956.04-18814370-18584268-18386720-18225422-18102968-18022674-17986578-17995970
952.18-18052140-18154896-18305338-18504368-18751970-19048856-19394632-19789446
948.32-20231426-20719608-21253770-21834964-22465158-23148696-23890098-24694782
944.47-25566682-26507884-27519358-28597680-29738498-30935474-32180996-33468558
940.61-34791500-36145544-37526608-38931712-40358244-41803248-43262140-44730172
936.75-46201528-47669692-49128712-50572488-51995468-53393032-54760920-56095444
932.90-57393276-58650544-59865040-61033976-62156916-63233256-64263980-65250960
929.04-66195892-67100276-67963824-68786248-69564232-70295160-70976792-71606704
925.18-72184952-72712480-73191832-73627136-74021104-74377312-74698808-74987032
921.33-75244664-75473496-75676384-75856344-76015888-76155184-76273888-76367920
917.47-76431608-76458568-76442960-76381576-76274768-76127680-75946680-75741872
913.61-75521064-75290816-75052904-74806968-74549080-74274992-73981840-73669440
909.75-73339912-72998224-72649704-72298792-71947096-71592824-71232776-70861784
905.90-70476640-70076968-69666864-69252544-68844192-68452480-68084752-67745840
902.04-67435224-67148464-66877348-66612620-66345528-66068564-65778688-65473224
898.18-65153932-64822964-64482624-64135424-63782776-63425220-63062212-62693032
894.33-62316608-61931140-61536088-61130720-60714496-60287584-59850152-59402740
890.47-58945152-58477740-58001036-57515740-57022936-56525480-56026604-55530632
886.61-55043312-54568616-54111048-53672968-53255292-52858220-52481580-52125212
882.76-51791468-51484696-51211396-50979160-50795044-50664292-50588360-50563832
878.90-50582228-50630564-50693872-50756452-50805504-50831832-50830752-50803160
875.04-50753024-50685396-50606216-50518560-50421876-50312920-50186096-50034724
871.18-49854108-49641160-49398048-49128712-48840012-48537540-48226696-47907296
867.33-47576804-47229076-46857044-46454724-46019740-45554776-45066328-44565052
863.47-44062708-43568176-43087620-42621788-42168144-41719448-41270444-40816588
859.61-40357700-39897044-39441700-38997852-38572056-38166324-37780308-37408748
855.76-37045464-36684284-36320840-35953664-35583124-35213048-34845976-34482828
851.90-34123424-33763392-33397986-33021370-32628972-32218406-31790578-31347472
848.04-30892370-30428184-29957648-29481300-28998406-28507862-28009480-27503068
844.19-26990814-26474548-25957742-25443150-24931688-24424276-23920370-23418870
840.33-22920150-22423652-21931226-21444524-20965390-20494936-20032616-19577150
836.47-19125416-18675024-18222662-17767220-17308516-16848752-16390883-15939335
832.62-15497063-15067397-14650715-14246109-13849890-13456342-13058630-12647696
828.76-12216322-11756538-11263512-10734251-10168718-9569838-8943684-8297080
824.90-7636674-6968571-6297399-5625753-4953447-4279737-3602948-2923448-2240863
820.56-1558910-882803-219629+419600+1023391+1577717+2066388+2473761+2781670
816.22+2974844+3039988+2966538+2750130+2392315+1900092+1286453+569897-228570
811.88-1085926-1978723-2885142-3784160-4657957-5490424-6269010-6984893-7631483
807.55-8206459-8711012-9148726-9525769-9849961-10128924-10370083-10577714
803.69-10755529-10903908-11023045-11111652-11168810-11194705-11191746-11162890
799.83-11113502-11047464-10969767-10882078-10784576-10674858-10549772-10405246
795.97-10238311-10048035-9837373-9612795-9381888-9155023-8942388-8750101
792.12-8582434-8439207-8316166-8206459-8102490-7996105-7882483-7758842-7625551
787.78-7485945-7347254-7217081-7104144-7015680-6958742-6936114-6947799-6989159
783.44-7053514-7129736-7207067-7275122-7325559-7355227-7363200-7353187-7331864
779.10-7305532-7279016-7255280-7234698-7214855-7191119-7160521-7119907-7066867
774.76-7001028-6922204-6829834-6722434-6598145-6454552-6289977-6104973-5901573
770.42-5683854-5455523-5221402-4983346-4741168-4491336-4227529-3945653-3640307
766.08-3310176-2957105-2587215-2207935-1828749-1458219-1103240-768290-454873
761.74-163001+107405+357733+586670+792247+969797+1113435+1217467+1275918
757.41+1285614+1244501+1153611+1015562+833534+609966+345249+36515-323752
753.07-743711-1233365-1800093-2446600-3169813-3960148-4804316-5685339-6588313
748.73-7503930-8427534-9362814-10317339-11300874-12320757-13379134-14470758
744.87-15582464-16696697-17792272-18850264-19855116-20797926-21675124-22487194
741.01-23239188-23936332-24583836-25186708-25749946-26279644-26783706-27270944
737.16-27752908-28237102-28730292-29233380-29741424-30245832-30733454-31190978
733.30-31608750-31980412-32306918-32594670-32855376-33100896-33345102-33596380
729.44-33858556-34131448-34409204-34684180-34948000-35193920-35416852-35616812
725.59-35795444-35957852-36109864-36257676-36407840-36565268-36733236-36915376
721.73-37112964-37326164-37553160-37790124-38032148-38272312-38503172-38718544
717.87-38912812-39084164-39232600-39359952-39471672-39570668-39661672-39746852
714.01-39826764-39899948-39964416-40018712-40060112-40086808-40097700-40090076
710.16-40061748-40010356-39932276-39826580-39693636-39536884-39363224-39181368
706.30-39000760-38828676-38670384-38524620-38386836-38246676-38092692-37912688
702.44-37699016-37447488-37160628-36844964-36512492-36175760-35846244-35532864
698.59-35240000-34968400-34714792-34472988-34235516-33994916-33743884-33477126
694.73-33190264-32881824-32551428-32202712-31841688-31475468-31115188-30770356
690.87-30449562-30158488-29897884-29663922-29448390-29240876-29028762-28802170
687.02-28552678-28276802-27972698-27641994-27287788-26912442-26518140-26108532
683.16-25686540-25256732-24825524-24399700-23985134-23583670-23194952-22812746
679.30-22427144-22027666-21604936-21154524-20678794-20185082-19685878-19194058
675.45-18719756-18266486-17834450-17417216-17010928-16611356-16222006-15850633
671.59-15507576-15200792-14929745-14683013-14436612-14156940-13807050-13356600
667.73-12787766-12100234-11314930-10466130-9596501-8746952-7947542-7214299
663.87-6545273-5926629-5336146-4752497-4159713-3550904-2928283-2300392-1678389
659.54-1071591-484299+84302+638947+1186797+1734840+2287086+2844753+3407286
655.20+3972731+4537632+5100215+5657578+6206630+6743245+7261421+7753463+8210733
650.86+8625707+8994414+9315511+9594874+9839791+10064871+10283795+10511470
647.00+10759157+11035119+11341154+11674653+12027747+12389372+12748356+13094648
643.14+13422884+13733898+14033695+14334303+14651139+14998041+15388951+15830299
639.29+16324389+16869482+17460730+18092910+18762678+19467726+20208286+20981110
635.43+21781706+22600860+23425830+24242724+25041584+25817750+26577716+27338150
631.57+28124466+28964504+29886366+30907386+32034890+33264166+34579924+35972188
627.72+37414440+38895752+40418516+42000560+43668024+45452716+47382612+49478616
623.86+51725516+54098500+56558144+59055912+61547408+63995916+66385968+68703168
620.00+70981408+73250480+75544840+77893000+80317064+82827496+85427456+88122608
616.15+90904464+93767528+96713648+99744752+102866208+106072072+109350256
612.77+112698704+116019528+119230496+122248824+124989928+127409480+129495872
609.40+131301152+132907384+134425744+135965888+137614672+139413456+141348608
606.02+143356416+145343072+147145056+148715104+149985072+150950592+151635680
602.65+152117232+152476112+152804672+153097344+153467744+153922944+154462784
599.27+155064640+155716640+156392688+157094992+157764416+158455184+159147776
595.90+159841520+160506336+161108784+161605968+161958048+162109728+162059312
592.52+161792736+161337120+160725296+160026320+159300016+158615488+158039680
589.15+157595648+157282048+157087984+156963248+156867888+156748432+156575024
585.77+156368176+156087968+155748848+155370080+154958288+154519552+154038992
582.40+153511728+152963680+152331936+151588976+150746960+149799280+148747792
579.02+147602608+146381440+145128192+143807648+142421680+140959552+139420688
575.65+137795040+136053168+134185464+132203912+130075432+127792544+125386736
572.27+122851192+120209304+117438400+114508824+111357840+107944592+104235648
568.90+100258056+96082928+91853424+87727064+83884200+80405224+77380720+74749936
565.04+72378104+70056128+67561064+64697692+61353644+57434196+53090744+48455004
561.18+43701832+38992968+34458220+30164870+26152458+22346754+18803122+15489234
557.33+12381391+9431618+6584027+3755062+851055-2263558-5597538-9158172
553.47-12902140-16727294-20508172-24116302-27463528-30543284-33354036-35983520
549.61-38526980-41077740-43691368-46369908-49054872-51679904-54137860-56376336
545.76-58366656-60137364-61757976-63323964-64930916-66646008-68521664-70567280
541.90-72752128-75021120-77296928-79496128-81550600-83366248-84915864-86180640
538.04-87180664-87966800-88632496-89285592-90034968-90952208-92090232-93436608
534.19-94912984-96418080-97831616-99032656-99960704-100597216-100996840
530.81-101259992-101508968-101853560-102375000-103093720-103975440-104953688
527.44-105928016-106812664-107542384-108081056-108453752-108668216-108803936
524.06-108895680-108985160-109078288-109190000-109314216-109447616-109606192
520.69-109819456-110110648-110527816-111092880-111797192-112608320-113476888
517.31-114333376-115107528-115736336-116194384-116466048-116585880-116576728
513.94-116486280-116353136-116223952-116113424-116055840-116067944-116135920
510.56-116267184-116440632-116628768-116814960-116979712-117132344-117281680
507.19-117475744-117771400-118222272-118871752-119721832-120736848-121830304
503.81-122885096-123782576-124434912-124807160-124919976-124880592-124829344
500.44-124933064-125338200-126137688-127329208-128861744-130571024-132278096
497.06-133785624-134929968-135603456-135776480-135504896-134907904-134129144
493.69-133374112-132770832-132474944-132538952-132980104-133746960-134741968
490.31-135831136-136886096-137774880-138405376-138737664-138791520-138605200
486.94-138280560-137909456-137587568-137362544-137259312-137247360-137274144
483.56-137278576-137201296-137023984-136771056-136495536-136273936-136202736
480.19-136335392-136695424-137263056-137965408-138722320-139422464-140009552
476.81-140443488-140733120-140924304-141043472-141150544-141259472-141344224
473.44-141386432-141339456-141182032-140923120-140614448-140330768-140163344
470.06-140197584-140472096-140968224-141605440-142248176-142745776-142956592
466.69-142794736-142213632-141269328-140067456-138752496-137491344-136446880
463.31-135723872-135397776-135475680-135939920-136693376-137656160-138702208
459.94-139704112-140557584-141183376-141532272-141605264-141438672-141100320
456.56-140666736-140218704-139793712-139407648-139046192-138674064-138247648
453.19-137754928-137218704-136693552-136261296-136004816-135974592-136172672
449.81-136540944-136977056-137352304-137552256-137511824-137228080-136765760
446.44-136243024-135784848-135488336-135383760-135431264-135514976-135495680
443.07-135224896-134633280-133711576-132554176-131316968-130192096-129364320
439.69-128947528-129001216-129486416-130295104-131302408-132347768-133315944
436.32-134108800-134671040-134978832-135027536-134833584-134445088-133929088
432.94-133392232-132934944-132688352-132714704-133039312-133597672-134246096
429.57-134783504-135014368-134778720-134042976-132878304-131494752-130173232
426.19-129207392-128805648-129062976-129890040-131090352-132367616-133421480
422.82-134025696-134102136-133715672-133068056-132415712-132023864-132045608
419.44-132531752-133394808-134431920-135411792-136106416-136369200-136157296
416.07-135525568-134638752-133682832-132876416-132368128-132276888-132623656
412.69-133363840-134375504-135498912-136558704-137358608-137762080-137688400
409.32-137127392-136189072-135036768-133901216-133002688-132536552-132581568
405.94-133120064-133990304-134982432-135834208-136321904-136314048-135789792
402.57-134854592-133714136-132582072-131693416-131179256-131104736
##END=
