##TITLE=PFDA-MAA-Transmission
##JCAMP-DX=4.24
##DATA TYPE=INFRARED SPECTRUM
##DATE=2016/5/4
##SAMPLING PROCEDURE=Thin Film
##ORIGIN=Default
##XUNITS=1/CM
##YUNITS=ABSORBANCE
##RESOLUTION=4
##FIRSTX=4000.1223
##LASTX=400.15686
##DELTAX=-0.4821167
##MAXY=0.088262394
##MINY=-0.16211146
##XFACTOR=1
##YFACTOR=1.5097806e-010
##NPOINTS=7468
##FIRSTY=-0.16189441
##XYDATA=(X++(Y..Y))
4000.12-1072304195-1071680128-1071507392-1071759488-1072293120-1072927488
3997.23-1073462336-1073741824-1073703808-1073383232-1072887616-1072376960
3994.34-1071994112-1071837440-1071905280-1072140544-1072408832-1072575616
3991.44-1072540672-1072273472-1071821376-1071310336-1070887104-1070690304
3988.55-1070791488-1071184192-1071766784-1072386240-1072868480-1073071744
3985.66-1072925760-1072460352-1071774080-1071033856-1070409216-1070030784
3982.77-1069970304-1070202944-1070644224-1071149248-1071578304-1071814784
3979.87-1071799168-1071538816-1071079232-1070522880-1069974016-1069504320
3976.98-1069171648-1068982016-1068915840-1068934464-1069003776-1069099968
3974.09-1069222784-1069391360-1069633152-1069970816-1070407616-1070912640
3971.20-1071426112-1071863936-1072138880-1072163648-1071910016-1071393728
3968.30-1070685760-1069926592-1069251776-1068833024-1068768960-1069112000
3965.41-1069811008-1070739456-1071702528-1072496768-1072918976-1072853568
3962.52-1072259776-1071226048-1069902464-1068512064-1067263232-1066336256
3959.62-1065810496-1065687936-1065878464-1066241088-1066619584-1066896256
3956.73-1067002752-1066957952-1066822144-1066705472-1066700928-1066863296
3953.84-1067183488-1067590016-1067967808-1068191552-1068166720-1067864704
3950.95-1067331136-1066690752-1066100736-1065729280-1065683648-1066003968
3948.05-1066614592-1067379008-1068096256-1068584704-1068712192-1068443072
3945.16-1067844736-1067072704-1066320832-1065778496-1065564544-1065704000
3942.27-1066108544-1066626944-1067061696-1067255936-1067113664-1066658368
3939.38-1065998208-1065320640-1064815104-1064640512-1064855616-1065419136
3936.48-1066181184-1066953984-1067522304-1067745664-1067556160-1067008576
3933.59-1066229440-1065410368-1064731200-1064330496-1064248320-1064448448
3930.70-1064794304-1065146816-1065346240-1065310016-1065021120-1064543040
3927.80-1064010048-1063564928-1063332672-1063371264-1063661568-1064100544
3924.91-1064533568-1064797824-1064764672-1064378112-1063683392-1062797184
3922.02-1061896768-1061164288-1060740288-1060675584-1060940288-1061410624
3919.13-1061918272-1062307008-1062456576-1062343744-1062020672-1061617728
3916.23-1061298048-1061195200-1061379136-1061824896-1062428416-1063027008
3913.34-1063441280-1063555136-1063298368-1062711872-1061912320-1061057600
3910.45-1060303936-1059773568-1059509248-1059492672-1059638720-1059855360
3907.56-1060056832-1060198848-1060284736-1060353792-1060466624-1060669248
3904.66-1060961856-1061310656-1061629568-1061825408-1061816768-1061572608
3901.77-1061114752-1060535872-1059965696-1059550976-1059391104-1059538432
3898.88-1059953600-1060521216-1061067392-1061411904-1061402880-1060962560
3895.99-1060107072-1058960192-1057710080-1056592832-1055809472-1055503040
3893.09-1055703488-1056327040-1057191040-1058062848-1058704832-1058942848
3890.20-1058707200-1058042624-1057110528-1056113728-1055266112-1054729024
3887.31-1054550784-1054690368-1054992832-1055274944-1055361856-1055140864
3884.41-1054610688-1053879808-1053131136-1052577984-1052386048-1052637952
3881.52-1053292416-1054194560-1055110976-1055800000-1056062208-1055807808
3878.63-1055076544-1054024320-1052897920-1051947456-1051383168-1051315264
3875.74-1051729344-1052499520-1053415488-1054257024-1054824192-1055014464
3872.84-1054820352-1054336192-1053716480-1053132096-1052716672-1052542272
3869.95-1052580160-1052746368-1052897088-1052899264-1052666240-1052186496
3867.06-1051530944-1050839168-1050274240-1049976832-1050023040-1050402752
3864.17-1051009344-1051672640-1052192704-1052405120-1052220032-1051653440
3861.27-1050812288-1049882368-1049065792-1048530112-1048366080-1048557056
3858.38-1049009280-1049558144-1050034304-1050322304-1050379456-1050253952
3855.49-1050054528-1049931136-1049996672-1050298496-1050777280-1051286272
3852.59-1051619648-1051580608-1051035456-1049969216-1048489664-1046819136
3849.70-1045232320-1044005312-1043334528-1043296960-1043831808-1044757504
3846.81-1045822848-1046762944-1047374592-1047552320-1047308544-1046760768
3843.92-1046092224-1045489856-1045103360-1045017280-1045218752-1045636736
3841.02-1046147584-1046641856-1047022656-1047253056-1047341696-1047343424
3838.13-1047312576-1047298368-1047305984-1047312576-1047257152-1047072960
3835.24-1046711424-1046155840-1045440192-1044646208-1043881472-1043259072
3832.35-1042863424-1042739520-1042865600-1043162688-1043518400-1043795904
3829.45-1043888896-1043721856-1043299648-1042676608-1041977728-1041349376
3826.56-1040931008-1040840000-1041118720-1041746432-1042619520-1043591424
3823.67-1044494272-1045172224-1045508736-1045464320-1045064960-1044406720
3820.77-1043622720-1042847232-1042185344-1041699200-1041384448-1041196288
3817.88-1041060032-1040908608-1040707072-1040462720-1040230336-1040086080
3814.99-1040106624-1040331328-1040744576-1041274368-1041787904-1042156736
3812.10-1042255808-1042028544-1041486400-1040725696-1039889280-1039146944
3809.20-1038628416-1038417408-1038502656-1038816192-1039222656-1039596608
3806.31-1039836480-1039905920-1039839296-1039732032-1039699392-1039835008
3803.42-1040186368-1040717056-1041313536-1041819200-1042062464-1041914752
3800.53-1041321664-1040333504-1039090112-1037786304-1036634304-1035808384
3797.63-1035403392-1035423680-1035774656-1036301440-1036823040-1037186432
3794.74-1037301504-1037155136-1036809408-1036383936-1036002176-1035766784
3791.85-1035712960-1035810560-1035969216-1036073728-1036005312-1035708160
3788.96-1035182592-1034515392-1033844928-1033327872-1033094400-1033214528
3786.06-1033662336-1034334144-1035061952-1035662912-1035983296-1035940672
3783.17-1035545792-1034895488-1034145152-1033468096-1032995264-1032802304
3780.28-1032859520-1033070912-1033287168-1033357568-1033161152-1032673216
3777.38-1031936384-1031083584-1030276416-1029682944-1029418432-1029526336
3774.49-1029952576-1030584128-1031254592-1031811136-1032124736-1032152448
3771.60-1031913408-1031497280-1031016960-1030588480-1030286272-1030132096
3768.71-1030086144-1030067840-1029988352-1029780480-1029424768-1028953600
3765.81-1028455744-1028034304-1027792000-1027785600-1028012032-1028407488
3762.92-1028855296-1029225984-1029408896-1029340736-1029023872-1028530752
3760.03-1027975296-1027489792-1027167040-1027051648-1027116416-1027272192
3757.14-1027393536-1027364224-1027098624-1026597184-1025926848-1025224576
3754.24-1024665088-1024398464-1024527488-1025061760-1025908288-1026894720
3751.35-1027799232-1028414208-1028588608-1028271296-1027523520-1026509312
3748.46-1025446144-1024551936-1023988032-1023832192-1024036736-1024479232
3745.56-1024970560-1025316544-1025372736-1025081984-1024481408-1023692800
3742.67-1022881920-1022216192-1021806592-1021698240-1021845760-1022152256
3739.78-1022487104-1022740544-1022846080-1022794624-1022650048-1022507072
3736.89-1022474752-1022629120-1023000832-1023545536-1024171264-1024740992
3733.99-1025120384-1025201024-1024928512-1024315200-1023427136-1022392640
3731.10-1021347968-1020420992-1019709696-1019247744-1019028032-1018979712
3728.21-1019015104-1019039424-1018983872-1018821888-1018574912-1018313088
3725.32-1018121344-1018088384-1018253888-1018612544-1019099840-1019605056
3722.42-1020005056-1020192704-1020102976-1019752512-1019205440-1018582272
3719.53-1018002176-1017564992-1017302848-1017189440-1017139072-1017051968
3716.64-1016828672-1016441216-1015915456-1015355136-1014895872-1014669568
3713.74-1014764544-1015178752-1015831360-1016559936-1017175232-1017500032
3710.85-1017423936-1016932224-1016104768-1015102336-1014104448-1013286528
3707.96-1012760192-1012550528-1012610176-1012827200-1013079872-1013257088
3705.07-1013307264-1013229888-1013089216-1012973568-1012970432-1013139200
3702.17-1013477888-1013934272-1014400128-1014765696-1014916608-1014786944
3699.28-1014368576-1013707648-1012895168-1012047488-1011269952-1010639168
3696.39-1010189376-1009903744-1009729088-1009604224-1009467840-1009283328
3693.50-1009046784-1008787392-1008552512-1008386304-1008324224-1008366080
3690.60-1008478400-1008600576-1008661376-1008594240-1008358272-1007954176
3687.71-1007415040-1006817472-1006238464-1005764288-1005452416-1005335168
3684.82-1005393664-1005589696-1005855104-1006121792-1006319168-1006412032
3681.93-1006380352-1006240640-1006030848-1005801728-1005604032-1005482624
3679.03-1005458240-1005523648-1005652352-1005805568-1005931776-1005984512
3676.14-1005939456-1005780992-1005523456-1005186432-1004798656-1004376640
3673.25-1003927232-1003441728-1002910848-1002327168-1001696384-1001048320
3670.35-1000433280-999912512-999545280-999367488-999378176-999536576-999770624
3666.98-999993152-1000122560-1000110912-999947392-999669312-999347072
3664.09-999061440-998880960-998843456-998939392-999119872-999304448-999414976
3660.71-999390208-999195008-998846272-998381504-997870848-997376064-996941824
3657.34-996595072-996321728-996096384-995878336-995633408-995338560-994996480
3653.96-994623296-994264192-993956096-993747904-993672384-993743744-993962432
3650.59-994297408-994703360-995121280-995479616-995719424-995790784-995679168
3647.21-995384704-994950720-994426048-993867584-993330752-992853952-992449920
3643.84-992122240-991859200-991649088-991490432-991380928-991325248-991328704
3640.46-991371136-991429248-991452096-991391872-991206208-990865088-990382656
3637.09-989797696-989179456-988597632-988120960-987788736-987607040-987557056
3633.71-987594560-987679232-987776256-987880128-987990848-988129728-988306496
3630.34-988519744-988740544-988923456-989015808-988972800-988770752-988422528
3626.96-987970624-987484800-987026304-986655168-986395520-986251008-986185984
3623.59-986162112-986125184-986046016-985907264-985708480-985465792-985200384
3620.21-984932992-984677568-984437248-984208064-983983744-983759872-983530240
3616.84-983304128-983072448-982845824-982628928-982426944-982246848-982104512
3613.46-982010880-981976832-982014016-982120128-982280192-982466624-982641344
3610.09-982767552-982803392-982727872-982526336-982217024-981825920-981396352
3606.72-980979968-980621312-980352768-980190400-980136512-980172992-980254912
3603.34-980344256-980385408-980340608-980177920-979888192-979480576-978983104
3599.97-978433088-977867072-977322944-976825408-976388288-976024640-975744768
3596.59-975559296-975476480-975510272-975650688-975874624-976133312-976362432
3593.22-976475008-976413696-976144768-975688512-975113664-974541248-974098112
3589.84-973904512-974026240-974454656-975104704-975823616-976430528-976756032
3586.47-976689408-976204416-975361216-974295104-973179008-972181056-971426240
3583.09-970962880-970769600-970770304-970857472-970922304-970894848-970744128
3579.72-970485760-970172480-969859904-969605888-969428096-969327232-969279744
3576.34-969243072-969184064-969076032-968916480-968713920-968496000-968279296
3572.97-968082368-967916288-967775424-967661056-967558016-967461952-967369088
3569.59-967273024-967169600-967051264-966909952-966735936-966520064-966272576
3566.22-965992256-965700992-965407552-965130816-964866688-964615616-964357952
3562.84-964081280-963768320-963422976-963060544-962715392-962423872-962224064
3559.47-962137216-962162176-962267328-962399744-962498944-962500928-962370048
3556.09-962097152-961702592-961247680-960789248-960399744-960126976-959989184
3552.72-959980288-960056960-960169472-960264768-960305280-960268672-960151552
3549.34-959968768-959741632-959489088-959222784-958947136-958663552-958374592
3545.97-958092928-957831616-957616064-957456128-957360000-957320576-957300480
3542.59-957263616-957157120-956952320-956638912-956235328-955780544-955340224
3539.22-954966528-954709184-954574528-954545984-954574528-954592000-954536448
3535.84-954352384-954024064-953564736-953026368-952476544-951991616-951635904
3532.47-951453440-951460992-951633216-951931776-952295040-952667904-952997056
3529.09-953254528-953431616-953538880-953597504-953630976-953654400-953663744
3525.72-953637120-953543808-953348416-953028800-952581632-952039872-951460352
3522.34-950906048-950453632-950146048-949998400-949987392-950061504-950150976
3518.97-950203520-950182272-950095552-949994304-949937024-949995264-950201024
3515.59-950549440-950987584-951421440-951751168-951892608-951803200-951504640
3512.22-951068416-950601152-950213568-949995776-949980480-950147520-950419072
3508.85-950698112-950880192-950895680-950722432-950387264-949962368-949532096
3505.47-949182784-948968832-948904128-948971456-949113984-949263936-949357568
3502.10-949358080-949247808-949049152-948801600-948566784-948396480-948340480
3498.72-948418688-948624320-948926080-949270848-949595904-949846336-949980928
3495.35-949992768-949897856-949747712-949601856-949513792-949513344-949600576
3491.97-949729536-949829568-949818304-949622592-949211904-948603136-947875328
3488.60-947138240-946530304-946168768-946130240-946434368-947029184-947819392
3485.22-948667456-949448768-950068672-950478464-950684288-950731072-950693120
3481.85-950628608-950584000-950567680-950555648-950509248-950387776-950178368
3478.47-949893696-949580416-949299840-949112704-949051136-949109760-949244160
3475.10-949371392-949399424-949266880-948943616-948471680-947939520-947476992
3471.72-947195520-947185152-947452288-947940672-948508352-948999296-949243648
3468.35-949153984-948707968-947985088-947139712-946358080-945808512-945595712
3464.97-945737856-946151488-946686528-947164224-947426176-947385472-947041024
3461.60-946485376-945865280-945342656-945056064-945058816-945329152-945770688
3458.22-946237632-946579648-946688704-946518912-946103104-945540480-944958848
3454.85-944488448-944212096-944165568-944306944-944544192-944765504-944863680
3451.47-944762496-944445888-943953216-943373760-942809792-942363264-942096768
3448.10-942028416-942114368-942272256-942391616-942367744-942127488-941643072
3444.72-940948352-940123456-939275008-938514752-937925056-937547520-937360896
3441.35-937307968-937286208-937200192-936967104-936550272-935962624-935260928
3437.97-934529344-933851520-933285696-932850496-932516544-932223168-931890560
3434.60-931448128-930866880-930155456-929378816-928632448-928015104-927605824
3431.22-927435648-927480192-927665728-927871104-927979200-927886016-927546496
3427.85-926967168-926220224-925412288-924662144-924066304-923684096-923512768
3424.47-923499008-923559232-923583872-923491648-923237376-922818880-922281856
3421.10-921692352-921131072-920653760-920282496-920008256-919782144-919550016
3417.73-919258560-918885888-918447104-917991104-917592576-917322304-917231616
3414.35-917332800-917592256-917926272-918239744-918428928-918426432-918206336
3410.98-917802624-917290432-916770624-916346048-916087616-916033216-916152960
3407.60-916391936-916658688-916877824-916983488-916957376-916817024-916615040
3404.23-916412352-916269440-916213568-916247040-916324992-916387840-916364992
3400.85-916205056-915882112-915416192-914858944-914286976-913789824-913433664
3397.48-913259968-913262400-913389760-913558528-913672576-913640896-913406976
3394.10-912965120-912356352-911676608-911036864-910553664-910309760-910333760
3390.73-910595712-911005888-911442304-911777536-911911360-911801472-911470272
3387.35-911000192-910507456-910122176-909933760-909986432-910239296-910611392
3383.98-910970624-911190720-911174272-910887936-910362496-909685248-908974080
3380.60-908351232-907900352-907659520-907601024-907659264-907743040-907768320
3377.23-907684992-907495232-907233792-906986624-906834752-906840768-907027904
3373.85-907374592-907807872-908231680-908543296-908667840-908566272-908257472
3370.48-907798592-907279552-906786304-906390208-906129152-905993728-905945664
3367.10-905924928-905870336-905745536-905550784-905314688-905091904-904936192
3363.73-904886912-904949504-905077632-905194560-905197056-905003136-904562432
3360.35-903882304-903042688-902165248-901404800-900890688-900711168-900874880
3356.98-901297280-901835136-902299968-902531008-902405312-901901824-901089728
3353.60-900118336-899178752-898447488-898045504-897993984-898225152-898582912
3350.23-898885568-898961024-898713728-898149184-897368384-896550336-895900224
3346.85-895590144-895701632-896211136-896976448-897796288-898431936-898699392
3343.48-898501888-897868544-896942080-895935936-895087936-894584000-894516864
3340.10-894864384-895488640-896189312-896744000-896985536-896837376-896326720
3336.73-895593856-894824128-894209344-893891456-893923648-894256000-894757120
3333.35-895243200-895543616-895550144-895233152-894667904-893992704-893370432
3329.98-892950848-892804800-892920960-893196224-893476224-893598400-893447296
3326.61-892989824-892289600-891498432-890808896-890400320-890386688-890776448
3323.23-891470656-892275264-892966464-893338752-893273920-892769024-891943040
3319.86-891004608-890189696-889710720-889680320-890099264-890837568-891684736
3316.48-892393920-892763328-892663232-892098176-891172608-890075712-889017280
3313.11-888177024-887657792-887464832-887516736-887672896-887791744-887770624
3309.73-887576704-887267648-886960000-886792000-886880192-887271872-887923008
3306.36-888691264-889381056-889767872-889692160-889078976-887990528-886608384
3302.98-885200064-884062720-883447104-883500544-884210176-885419328-886846912
3299.61-888158208-889050240-889322816-888932992-888002560-886782976-885596288
3296.23-884735936-884401408-884643968-885353088-886296896-887190080-887767872
3292.86-887877696-887497344-886763776-885908096-885187712-884827776-884915968
3289.48-885419840-886160832-886890048-887349248-887350272-886842688-885915904
3286.11-884778112-883701312-882941376-882657792-882891584-883523264-884341056
3282.73-885074816-885490240-885450944-884955584-884131840-883213248-882450816
3279.36-882061568-882156096-882708992-883560064-884470976-885164800-885436224
3275.98-885177920-884428352-883355776-882204352-881240768-880666944-880572032
3272.61-880902720-881487808-882068352-882395840-882290944-881692800-880700992
3269.23-879514880-878411904-877655104-877408832-877705664-878426624-879331968
3265.86-880133120-880566656-880475776-879858944-878860096-877739200-876794688
3262.48-876271936-876312256-876882880-877814336-878839680-879649984-880017216
3259.11-879826048-879120384-878087232-876990272-876101824-875624576-875625600
3255.73-876024896-876623424-877150272-877365440-877109120-876383488-875318336
3252.36-874173760-873240064-872769792-872896320-873585920-874640896-875751808
3248.98-876565312-876794368-876282432-875071232-873365888-871510208-869874560
3245.61-868774272-868383040-868680256-869474688-870441216-871217984-871513280
3242.23-871178688-870247040-868920768-867512128-866356736-865708544-865676288
3238.86-866195072-867031488-867871616-868395712-868374208-867738176-866581952
3235.49-865153472-863765632-862720704-862212480-862280128-862794816-863496128
3232.11-864069568-864229568-863823040-862843840-861463552-859971200-858690752
3228.74-857907904-857771968-858265408-859206976-860294912-861197376-861635392
3225.36-861475712-860737536-859610624-858376640-857344320-856739008-856658560
3221.99-857023680-857621568-858152384-858322304-857939904-856964864-855531264
3218.61-853908672-852444800-851453568-851127872-851503296-852421632-853590848
3215.24-854642816-855248128-855198336-854452224-853156096-851589760-850089792
3211.86-848968064-848414592-848458176-848964224-849668160-850258944-850471744
3208.49-850146624-849298624-848079296-846753984-845619456-844912000-844748672
3205.11-845090944-845753920-846465280-846940224-846969088-846475264-845537920
3201.74-844364352-843239872-842426432-842096576-842271360-842820608-843486720
3198.36-843960576-843986240-843416320-842269760-840729792-839088384-837665344
3194.99-836720320-836384448-836611840-837207552-837870656-838300032-838266816
3191.61-837691264-836661568-835412288-834252288-833478912-833284864-833710656
3188.24-834621696-835744192-836741632-837306304-837245760-836537984-835328960
3184.86-833907136-832603072-831718912-831434176-831748736-832501568-833390272
3181.49-834073920-834255808-833774208-832638464-831037312-829275456-827704320
3178.11-826617600-826173248-826357248-826983360-827751616-828334784-828469504
3174.74-828032192-827061824-825759680-824419904-823338432-822733568-822675584
3171.36-823072576-823686336-824217280-824375104-823986112-823022400-821632832
3167.99-820087488-818711744-817795072-817494400-817810816-818569856-819479936
3164.61-820204480-820459008-820091840-819110592-817701120-816152320-814791552
3161.24-813882880-813566336-813809472-814431680-815148800-815656768-815718784
3157.86-815233984-814258304-812994048-811718464-810708928-810153216-810103808
3154.49-810441472-810929088-811266880-811187968-810543360-809347904-807793024
3151.11-806187072-804879104-804162560-804178112-804882496-806040704-807290880
3147.74-808233984-808548800-808065216-806832704-805084672-803187264-801538752
3144.37-800454528-800094144-800414016-801180096-802046272-802641472-802685312
3140.99-802048640-800801152-799176192-797509504-796130496-795288448-795062720
3137.62-795367296-795956864-796518656-796751616-796464832-795619776-794350272
3134.24-792914816-791626816-790756928-790461760-790730048-791394496-792164800
3130.87-792721408-792795584-792256192-791129920-789613888-788005824-786623104
3127.49-785724224-785428032-785689024-786306624-786983040-787407360-787342208
3124.12-786684608-785496960-783979584-782415872-781090752-780214016-779857088
3120.74-779948928-780288000-780614528-780685888-780350976-779587264-778513024
3117.37-777340544-776319424-775656000-775445952-775646848-776086720-776511104
3113.99-776657920-776334912-775479488-774172928-772631488-771131584-769946688
3110.62-769260992-769119552-769412416-769905472-770311104-770358592-769883456
3107.24-768865728-767445376-765881856-764478400-763515328-763157376-763421952
3103.87-764166848-765131072-765998784-766490368-766426496-765780160-764677120
3100.49-763354880-762107072-761185792-760753856-760824896-761279488-761882624
3097.12-762367488-762499008-762151488-761334464-760196544-758983680-757961024
3093.74-757341248-757222656-757551808-758141504-758713920-758987840-758752448
3090.37-757934144-756623808-755046272-753507136-752303552-751641152-751574592
3086.99-751992576-752641792-753206336-753397376-753031296-752095296-750740864
3083.62-749247232-747940352-747099456-746876480-747247296-748022080-748892032
3080.24-749518912-749624640-749070208-747894912-746297472-744589056-743095680
3076.87-742080064-741663616-741808832-742326464-742934656-743349376-743354432
3073.49-742867648-741962496-740832256-739744512-738947648-738606848-738746048
3070.12-739244928-739863360-740319552-740354880-739825152-738731200-737229248
3066.74-735586560-734110912-733068736-732610240-732729088-733267264-733955200
3063.37-734493184-734627840-734232832-733329472-732095872-730791296-729702144
3059.99-729043008-728900288-729205376-729752704-730255552-730436416-730100416
3056.62-729197120-727836864-726256448-724761600-723636864-723063232-723070464
3053.25-723525376-724168512-724687488-724800768-724340992-723297408-721817792
3049.87-720175360-718674368-717580928-717034688-717016000-717348480-717748992
3046.50-717909312-717584704-716664320-715210368-713438720-711658688-710195840
3043.12-709285696-709023360-709317312-709926080-710516544-710760768-710423552
3039.75-709430976-707891840-706060928-704271808-702833920-701958784-701682304
3036.37-701869056-702244864-702477760-702272576-701461184-700049088-698214720
3033.00-696261568-694533120-693307840-692733568-692769152-693203328-693705600
3029.62-693920064-693563328-692496384-690772160-688608320-686335360-684302464
3026.25-682783488-681899456-681598656-681660032-681770432-681611072-680942144
3022.87-679679104-677906816-675857408-673844288-672167232-671030656-670483968
3019.50-670404352-670535552-670554560-670174016-669210304-667646912-665633472
3016.12-663443008-661392576-659757760-658686400-658161856-658003968-657920192
3012.75-657592832-656765184-655321088-653314368-650958016-648566144-646464256
3009.37-644900160-643976000-643615488-643586944-643566656-643229952-642341696
3006.00-640820928-638765312-636426176-634133568-632210752-630880704-630205632
3002.62-630070400-630207040-630278656-629960256-629043328-627481920-625410560
2999.25-623103936-620903744-619119488-617940160-617389952-617315200-617434176
2995.87-617420352-616996224-616016192-614512768-612682624-610836672-609308864
2992.50-608355328-608090304-608440832-609174016-609964672-610487488-610512448
2989.12-609966912-608962560-607754112-606668544-606004160-605947456-606512960
2985.75-607541824-608746688-609792960-610400960-610419264-609875328-608966208
2982.37-608000320-607316288-607176960-607701120-608833792-610348288-611912960
2979.00-613183616-613893952-613922816-613329344-612332352-611246720-610389312
2975.62-610006592-610188800-610861632-611797952-612690112-613233216-613214144
2972.25-612572352-611414272-609986048-608601536-607549568-607013120-607007808
2968.87-607375488-607827968-608023360-607667008-606600192-604848384-602623360
2965.50-600263616-598148352-596590336-595748096-595583040-595872704-596269568
2962.13-596414208-596024320-594991936-593404736-591527296-589721920-588346624
2958.75-587652032-587715456-588416512-589480256-590553664-591314304-591558016
2955.38-591259264-590574080-589786432-589228224-589179328-589783872-591015232
2952.00-592680064-594471936-596065600-597204480-597770112-597817408-597552192
2948.63-597276928-597299584-597851712-599018048-600722240-602737088-604753920
2945.25-606462208-607639232-608204672-608246272-607993984-607754112-607827392
2941.88-608423872-609604608-611262016-613144832-614928960-616303488-617061504
2938.50-617149184-616694848-615967488-615306368-615027264-615334912-616267264
2935.13-617678208-619286976-620753472-621775488-622176576-621960000-621303360
2931.75-620518272-619952448-619895232-620494208-621711424-623330368-625026496
2928.38-626454144-627349248-627605376-627309248-626711744-626159296-625992960
2925.00-626451392-627599872-629309760-631296448-633195392-634669888-635498112
2921.63-635643840-635261376-634650112-634170112-634137664-634737024-635962432
2918.25-637624256-639397376-640914560-641866880-642098688-641643840-640718592
2914.88-639664256-638840832-638534272-638873216-639796608-641072320-642364480
2911.50-643330880-643716928-643430656-642567168-641382336-640221248-639418496
2908.13-639210944-639666752-640670016-641951872-643166080-643990464-644212544
2904.75-643786816-642855360-641698432-640660416-640048000-640051328-640686208
2901.38-641788672-643062656-644161856-644779904-644740160-644038208-642845248
2898.00-641457280-640212992-639404544-639192320-639567360-640357696-641273472
2894.63-641999936-642279168-641987840-641175168-640042816-638895424-638050880
2891.25-637743488-638067648-638939968-640123520-641295680-642135936-642421248
2887.88-642091776-641265216-640211648-639277120-638782016-638933888-639766656
2884.50-641123648-642708928-644157760-645146240-645478336-645141632-644309312
2881.13-643289472-642440128-642066048-642336448-643233536-644564160-646016960
2877.75-647244480-647973312-648068800-647578240-646708032-645767936-645074496
2874.38-644862912-645214784-646044352-647111680-648108800-648736640-648800960
2871.00-648269184-647278144-646102144-645073664-644487424-644517888-645166848
2867.63-646257728-647488960-648508992-649022656-648867712-648065280-646815936
2864.26-645440832-644296960-643669760-643698560-644330624-645339456-646380672
2860.88-647096896-647213824-646626112-645422464-643870400-642339776-641200192
2857.51-640717760-640979840-641872128-643107136-644302976-645099648-645245440
2854.13-644682880-643556800-642172480-640910656-640123840-640029120-640657408
2850.76-641833408-643236288-644477568-645218048-645254528-644579520-643375872
2847.38-641963712-640704000-639896512-639696384-640072768-640817920-641615808
2844.01-642130496-642106880-641443840-640222400-638685632-637172800-636022656
2840.63-635480576-635630080-636365696-637427008-638468096-639151936-639250496
2837.26-638698560-637614912-636269760-635000704-634122816-633834560-634161920
2833.88-634956992-635932480-636750720-637115968-636867264-636017408-634757632
2830.51-633399040-632287232-631703680-631784320-632483776-633578176-634736192
2827.13-635604800-635907776-635523456-634515328-633112064-631644224-630449984
2823.76-629782272-629741760-630250048-631079552-631916160-632457664-632494784
2820.38-631974016-631009536-629846208-628793088-628126144-628010624-628449728
2817.01-629284160-630234560-630978432-631246080-630895296-629956352-628621952
2813.63-627200640-626026368-625363712-625341056-625904128-626840000-627828416
2810.26-628540160-628722816-628278016-627282816-625975040-624676544-623710848
2806.88-623300224-623510336-624221504-625170560-626016384-626441728-626243712
2803.51-625390464-624037120-622476800-621068416-620133248-619864832-620280320
2800.13-621209664-622348928-623337536-623858496-623727616-622940480-621666048
2796.76-620208128-618907648-618054144-617807680-618150144-618898240-619756736
2793.38-620398848-620565504-620131008-619146560-617816576-616443008-615344000
2790.01-614755904-614774208-615319936-616168704-617008640-617533504-617524928
2786.63-616919296-615822976-614482816-613216576-612322368-611993344-612261632
2783.26-612989120-613909184-614694144-615059136-614832896-614015040-612771008
2779.88-611388416-610196288-609463104-609332992-609769408-610579584-611457152
2776.51-612076224-612187904-611680896-610628416-609255872-607887104-606845120
2773.14-606364416-606523840-607224704-608213312-609159616-609746368-609760000
2769.76-609149056-608042816-606708224-605478016-604650816-604410176-604770624
2766.39-605571072-606521280-607284160-607568960-607218304-606245568-604836992
2763.01-603298240-601967808-601121216-600899520-601262848-602010368-602834688
2759.64-603412480-603494528-602979840-601944448-600617856-599322688-598377856
2756.26-598011008-598293440-599111360-600203712-601227264-601857088-601869376
2752.89-601209152-600003328-598523200-597110912-596080640-595635200-595806592
2749.51-596451584-597293120-598001280-598283200-597973184-597073856-595760896
2746.14-594329920-593111168-592384192-592288256-592791104-593698176-594698944
2742.76-595465984-595734720-595382080-594456576-593165568-591809280-590696960
2739.39-590060736-589988096-590404224-591089536-591751168-592105088-591963648
2736.01-591286336-590196416-588946304-587843776-587162176-587066624-587556992
2732.64-588467904-589513536-590364032-590736832-590474944-589593408-588274496
2729.26-586816576-585557184-584772352-584605248-585027520-585845248-586753984
2725.89-587428928-587613120-587188224-586213376-584901632-583560448-582509312
2722.51-581980224-582060928-582659392-583539456-584378880-584869120-584795584
2719.14-584102336-582908352-581474880-580130944-579181504-578821504-579081408
2715.76-579819264-580761856-581578304-581979392-581792832-581014848-579810048
2712.39-578461696-577292032-576570048-576431680-576845056-577616576-578446528
2709.01-579014720-579076416-578525632-577437312-576040128-574655808-573607936
2705.64-573131456-573304192-574021120-575027584-575984576-576563904-576545344
2702.26-575872320-574673472-573223040-571869376-570929792-570609216-570933440
2698.89-571749568-572762496-573620544-574013504-573758784-572853248-571474368
2695.51-569929472-568570560-567695296-567467264-567867520-568708736-569681664
2692.14-570451776-570745856-570433472-569557632-568324352-567035904-566008576
2688.76-565478208-565531968-566088320-566916544-567706752-568159104-568069376
2685.39-567388416-566240448-564884864-563641984-562806912-562555904-562903872
2682.02-563692672-564637760-565407232-565716224-565409472-564505600-563192064
2678.64-561777216-560596544-559923712-559886144-560433984-561345344-562295616
2675.27-562941120-563021184-562431232-561251648-559729216-558204800-557020288
2671.89-556425216-556503232-557152256-558116608-559055616-559641152-559653568
2668.52-559036928-557920384-556574144-555335296-554509376-554284544-554677696
2665.14-555530944-556552384-557402560-557789632-557546688-556684608-555386240
2661.77-553950592-552714816-551952128-551804416-552231808-553034880-553907264
2658.39-554520448-554622528-554103616-553031744-551632576-550225088-549131968
2655.02-548593920-548695040-549345280-550304384-551248448-551862720-551926400
2651.64-551374976-550318528-549006464-547758400-546869888-546532736-546778048
2648.27-547467008-548336320-549063680-549369984-549088640-548222976-546939072
2644.89-545523904-544300992-543543488-543393024-543822848-544644160-545560512
2641.52-546246656-546448000-546045568-545090432-543790976-542451520-541382400
2638.14-540816512-540838080-541361728-542156160-542913792-543337984-543233216
2634.77-542558016-541441216-540145024-538987776-538252160-538101952-538532224
2631.39-539371840-540323200-541059136-541303744-540919936-539945728-538582848
2628.02-537143360-535954752-535270720-535197824-535662720-536443392-537220736
2624.64-537681600-537603072-536917440-535732736-534301504-532947872-531978720
2621.27-531593664-531832512-532561248-533511680-534357632-534802112-534660032
2617.89-533910464-532699456-531301760-530037152-529192256-528934336-529271264
2614.52-530046272-530990176-531788032-532170848-531986720-531241056-530094784
2611.14-528814240-527699232-526998688-526841056-527197952-527898464-528674432
2607.77-529239616-529371136-528973120-528103104-526956992-525813888-524952288
2604.39-524572544-524738336-525353696-526191136-526953888-527363232-527234240
2601.02-526533824-525392000-524063328-522864448-522077472-521874176-522263392
2597.64-523090016-524075616-524895456-525267968-525035456-524204224-522947936
2594.27-521552352-520340704-519577984-519396768-519762880-520485504-521268032
2590.90-521798912-521836672-521279776-520198496-518814752-517438048-516380864
2587.52-515865280-515963264-516571680-517440096-518242336-518666688-518504640
2584.15-517709632-516414656-514890912-513482816-512499872-512141216-512430752
2580.77-513220064-514218784-515083872-515511872-515320064-514499552-513215488
2577.40-511759744-510464448-509613184-509358976-509683232-510403840-511229600
2574.02-511843872-511995104-511568032-510619488-509357856-508080928-507095008
2570.65-506624672-506746560-507371008-508264864-509119680-509636160-509613760
2567.27-508997856-507905344-506581536-505336224-504454400-504113632-504339872
2563.90-504996448-505830944-506539232-506857536-506632704-505868032-504719936
2560.52-503450784-502358208-501689792-501571680-501978624-502738016-503580320
2557.15-504215552-504411232-504062112-503209568-502038272-500814592-499817536
2553.77-499256352-499213952-499625568-500301408-500974240-501385312-501353632
2550.40-500825824-499899104-498784672-497752896-497053664-496844224-497141056
2547.02-497817472-498633600-499305888-499583232-499324928-498536448-497367520
2543.65-496078080-494959008-494252768-494084096-494424864-495102528-495845472
2540.27-496366976-496440544-495970176-495015904-493779712-492550208-491617888
2536.90-491193600-491349984-491994528-492898656-493756320-494271840-494236576
2533.52-493593120-492445344-491035136-489668288-488638432-488137824-488215360
2530.15-488761088-489539808-490260256-490655840-490558368-489945632-488941920
2526.77-487783552-486749536-486078336-485907200-486224032-486881856-487630752
2523.40-488196832-488352256-487985280-487126528-485941952-484687648-483634560
2520.02-482994784-482859424-483179744-483776288-484393600-484776032-484736352
2516.65-484215040-483292800-482171360-481114752-480371424-480104448-480342400
2513.27-480968544-481755488-482426240-482730368-482521056-481789984-480676640
2509.90-479422400-478311584-477584384-477369184-477655840-478288096-479020032
2506.52-479576512-479738464-479398016-478595296-477499904-476361920-475443552
2503.15-474939488-474923200-475328768-475965568-476576352-476910176-476792544
2499.78-476175936-475153760-473933728-472782400-471945856-471584672-471729312
2496.40-472268288-472984000-473611776-473911616-473735392-473071584-472043328
2493.03-470873504-469826432-469126752-468901888-469141056-469705280-470357856
2489.65-470840032-470938432-470550304-469711680-468589856-467433792-466507040
2486.28-466012160-466027648-466489216-467205248-467904768-468322368-468264672
2482.90-467670464-466627424-465348672-464112192-463185248-462747648-462838144
2479.53-463350176-464059968-464689952-464989568-464806368-464129696-463089184
2476.15-461923008-460905088-460266144-460127616-460468320-461130336-461865248
2472.78-462402528-462528096-462142336-461291840-460149216-458967808-458008224
2469.40-457464800-457412448-457790048-458414080-459039168-459422368-459396672
2466.03-458915200-458062624-457028704-456055552-455363680-455089984-455248352
2462.65-455723392-456304256-456743488-456827104-456437120-455582048-454404352
2459.28-453134144-452033664-451322368-451115744-451398016-452019328-452746560
2455.90-453317536-453519616-453241088-452507808-451465120-450346144-449397120
2452.53-448812768-448683968-448967968-449507424-450074048-450432960-450412704
2449.15-449950848-449111744-448069280-447055232-446291296-445928384-446000352
2445.78-446414624-446979808-447460640-447646976-447408960-446742592-445768320
2442.40-444697344-443771744-443195424-443072544-443378784-443965984-444601248
2439.03-445033472-445064608-444605696-443705024-442533344-441340576-440385952
2435.65-439860960-439843360-440269728-440955808-441646144-442088480-442099328
2432.28-441617344-440720192-439599360-438505440-437675936-437273600-437333120
2428.90-437761376-438357344-438877312-439100736-438892064-438240800-437264192
2425.53-436170304-435201024-434563072-434366432-434597280-435120832-435721184
2422.15-436160288-436247488-435890944-435125568-434099264-433033664-432160096
2418.78-431653984-431586112-431902784-432443936-432983520-433297376-433225984
2415.40-432717440-431841088-430772896-429739744-428960864-428583872-428644192
2412.03-429058624-429646112-430182400-430460512-430349536-429832448-429005184
2408.66-428050272-427185824-426597856-426390880-426554976-426973600-427453600
2405.28-427783456-427793760-427406912-426659040-425689472-424703584-423912096
2401.91-423473536-423449248-423782208-424319264-424850048-425169792-425134016
2398.53-424701824-423944960-423029536-422165632-421550240-421309184-421462304
2395.16-421915424-422487776-422960544-423141408-422912320-422268096-421316576
2391.78-420249824-419293792-418642816-418411872-418600448-419097280-419712256
2388.41-420225792-420453024-420289184-419743680-418927136-418026400-417245504
2385.03-416746880-416608928-416801472-417198976-417613024-417852608-417776992
2381.66-417336256-416589088-415685248-414821504-414186720-413907904-414012736
2378.28-414420992-414966048-415441568-415663008-415513088-414977952-414152288
2374.91-413208224-412349376-411753280-411521504-411652256-412043328-412520800
2371.53-412886816-412979488-412714496-412107232-411268256-410374656-409611936
2368.16-409131872-409000416-409190784-409586368-410012512-410293184-410290816
2364.78-409950368-409311232-408490816-407658848-406980544-406573888-406479520
2361.41-406648032-406955840-407242784-407357664-407201120-406754016-406081440
2358.03-405315200-404613088-404114336-403900704-403968928-404234432-404554112
2354.66-404766208-404737344-404399200-403770752-402952928-402102368-401387520
2351.28-400942208-400831552-401028736-401428384-401871872-402190912-402250240
2347.91-401988736-401431968-400682400-399892320-399220224-398788000-398646816
2344.53-398765632-399039968-399322304-399463808-399357536-398965632-398333632
2341.16-397575456-396842528-396282656-395996992-396011360-396268896-396645920
2337.78-396985312-397137312-397004416-396566784-395885824-395089664-394333952
2334.41-393760736-393457504-393429376-393604928-393850752-394016128-393972480
2331.03-393657280-393086048-392357888-391618208-391024704-390695744-390676576
2327.66-390924448-391318336-391691232-391880352-391765152-391309952-390569088
2324.28-389677728-388809760-388133856-387768000-387742816-388002912-388413408
2320.91-388807648-389024512-388958624-388581152-387951680-387193760-386461472
2317.53-385896576-385588896-385551712-385724160-385988320-386200320-386241696
2314.16-386039008-385593088-384970464-384288576-383677056-383244576-383047392
2310.79-383073504-383250912-383461888-383587328-383528224-383242208-382751744
2307.41-382135360-381507488-380986400-380653568-380542112-380614496-380781824
2304.04-380923008-380922112-380700704-380237152-379579072-378827392-378108576
2300.66-377542944-377210016-377123392-377235008-377439488-377612416-377636800
2297.29-377442208-377023840-376437248-375793664-375215840-374812800-374643328
2293.91-374698112-374905248-375147232-375293504-375239616-374932640-374389536
2290.54-373690720-372959456-372323232-371882720-371681440-371694688-371836320
2287.16-371986368-372023136-371859840-371467776-370888160-370217440-369578496
2283.79-369088416-368825952-368800608-368959584-369190624-369363744-369361344
2280.41-369110112-368607872-367919392-367162208-366472480-365967680-365712192
2277.04-365704640-365870752-366092672-366235808-366189280-365897920-365373696
2273.66-364696800-363988640-363376128-362959040-362776480-362800640-362940896
2270.29-363074784-363079936-362872000-362427296-361791456-361066848-360381696
2266.91-359853152-359555968-359499680-359627104-359831968-359988384-359987808
2263.54-359770848-359340800-358761792-358141824-357594048-357209440-357024960
2260.16-357019520-357111904-357193984-357153984-356917760-356462176-355827424
2256.79-355104960-354411712-353856576-353514240-353400192-353472672-353640064
2253.41-353792000-353825632-353673728-353325280-352822688-352252704-351713824
2250.04-351299008-351058944-350993664-351054080-351152096-351188512-351081984
2246.66-350787584-350314304-349719840-349093312-348535008-348123072-347894592
2243.29-347838048-347890624-347961440-347955040-347797056-347454880-346948544
2239.91-346343008-345731296-345205184-344835936-344647648-344619968-344686272
2236.54-344759296-344753824-344610528-344313632-343891648-343409312-342949760
2233.16-342584800-342358016-342269088-342276096-342306848-342279456-342128160
2229.79-341819424-341367200-340824800-340272192-339793216-339451616-339273984
2226.41-339239840-339290720-339342848-339312672-339138944-338803072-338329056
2223.04-337783616-337252416-336818080-336538976-336428544-336453248-336542016
2219.67-336603936-336554208-336337024-335940704-335405184-334806688-334238272
2216.29-333788544-333511904-333414784-333459680-333565632-333641664-333603200
2212.92-333402880-333038208-332555328-332034720-331566016-331225920-331050464
2209.54-331029376-331108544-331199008-331211552-331075840-330762880-330293024
2206.17-329730432-329165312-328689120-328363936-328214336-328210048-328284992
2202.79-328346176-328309472-328115520-327750816-327249888-326685792-326146400
2199.42-325717440-325449792-325352128-325383648-325471872-325524512-325462368
2196.04-325232992-324832384-324295424-323697664-323125216-322657792-322344512
2192.67-322191232-322162400-322188480-322190624-322095264-321861632-321490624
2189.29-321024768-320533696-320100864-319794048-319650144-319659360-319771360
2185.92-319907584-319980896-319918912-319686656-319294176-318789920-318253984
2182.54-317768544-317397632-317167904-317062880-317029696-316992544-316879520
2179.17-316643328-316276544-315813216-315321280-314879328-314555360-314386912
2175.79-314363520-314436384-314528320-314555072-314449920-314187072-313782784
2172.42-313296928-312811328-312405600-312138560-312025056-312031200-312088736
2169.04-312107808-312006272-311731232-311277344-310687328-310044864-309449696
2165.67-308994528-308737024-308685280-308798944-308993600-309166400-309226144
2162.29-309107872-308798944-308336928-307797152-307272992-306849536-306578016
2158.92-306465152-306470432-306515712-306516672-306398272-306121760-305695968
2155.54-305173920-304639424-304180384-303866624-303725312-303735200-303833632
2152.17-303930528-303934528-303783936-303455968-302979776-302425440-301883008
2148.79-301439296-301150880-301029504-301040000-301109504-301152096-301090016
2145.42-300879712-300519264-300055872-299564608-299131360-298823552-298675200
2142.04-298676416-298771008-298878560-298913184-298808096-298533920-298105472
2138.67-297577408-297028512-296540448-296172608-295951104-295857984-295841920
2135.29-295831680-295757728-295574272-295267904-294863424-294415840-293992352
2131.92-293652416-293430368-293324480-293298784-293292896-293239936-293087872
2128.55-292812544-292429696-291987648-291556672-291207136-290990176-290921056
2125.17-290973760-291087168-291180160-291173344-291011264-290675904-290195136
2121.80-289630240-289067104-288585760-288244544-288059968-288007840-288028000
2118.42-288041344-287974656-287777952-287440672-286993792-286499360-286034976
2115.05-285667072-285436672-285343488-285350336-285389792-285386368-285276768
2111.67-285031104-284655936-284201472-283736384-283336192-283058688-282924096
2108.30-282913216-282970112-283015808-282975712-282793248-282453824-281983808
2104.92-281446848-280921632-280487744-280195008-280056288-280041632-280088928
2101.55-280118176-280057216-279862752-279527072-279086720-278604640-278159200
2098.17-277817664-277617472-277558624-277599712-277673184-277700896-277615904
2094.80-277381120-276997792-276504768-275966464-275457664-275040736-274749952
2091.42-274586016-274515232-274481600-274424544-274297056-274078528-273776416
2088.05-273432512-273096992-272821920-272639776-272552448-272533408-272529664
2084.67-272476000-272318816-272025248-271597824-271074528-270517760-270000512
2081.30-269587136-269314848-269187744-269171520-269208352-269229600-269173728
2077.92-269005056-268721184-268350720-267946800-267566896-267261616-267053168
2074.55-266935680-266871616-266806608-266683776-266460912-266124576-265692208
2071.17-265212544-264746560-264355920-264083760-263941728-263907952-263932032
2067.80-263948288-263895120-263730544-263443008-263054048-262613392-262181440
2064.42-261815152-261549648-261392480-261319840-261286624-261239664-261133200
2061.05-260942160-260669680-260341424-260001552-259693888-259451392-259282176
2057.67-259173136-259086336-258978528-258810848-258559184-258227856-257843824
2054.30-257451280-257100096-256828208-256653184-256563792-256525232-256487584
2050.92-256396944-256213440-255920752-255530784-255078592-254617264-254195728
2047.55-253854480-253609280-253449152-253343328-253246624-253119744-252934784
2044.17-252686976-252395824-252095536-251830064-251631824-251517152-251474416
2040.80-251470640-251455872-251379840-251204176-250915392-250526624-250079936
2037.43-249630368-249236096-248941440-248762176-248687312-248674736-248669696
2034.05-248615616-248470912-248217088-247866640-247457328-247039440-246664624
2030.68-246367824-246162576-246032256-245942208-245843696-245693520-245464304
2027.30-245151952-244778448-244382544-244011168-243704320-243481888-243340080
2023.93-243251872-243174336-243064368-242888512-242633552-242313648-241963744
2020.55-241630816-241356832-241168912-241066416-241023520-240991056-240912192
2017.18-240737184-240440688-240024640-239522704-238993216-238500896-238101904
2013.80-237828832-237683632-237636256-237634992-237619520-237539008-237362192
2010.43-237089696-236747680-236379728-236035104-235753648-235553952-235428832
2007.05-235350176-235275280-235161216-234978864-234718784-234395472-234044272
2003.68-233705376-233417680-233205504-233068896-232987296-232922160-232830768
2000.30-232675808-232438272-232120064-231746768-231357312-230996256-230697200
1996.93-230480096-230338288-230246176-230167040-230060384-229897648-229666544
1993.55-229378112-229059264-228747952-228476528-228266848-228117344-228008064
1990.18-227901616-227758752-227545520-227249280-226880096-226471904-226074112
1986.80-225737136-225499344-225375376-225351920-225389312-225428944-225414048
1983.43-225298000-225060192-224710400-224287280-223844784-223440288-223119792
1980.05-222903376-222784368-222726640-222681872-222598080-222437504-222184832
1976.68-221851536-221472144-221092368-220755440-220492176-220307312-220183440
1973.30-220083072-219962048-219782528-219524240-219189360-218804864-218409808
1969.93-218050960-217761360-217555648-217423072-217335008-217247888-217121328
1966.55-216927984-216663392-216343440-216006592-215697056-215452080-215294592
1963.18-215218544-215195328-215178448-215116704-214965584-214702704-214333520
1959.80-213887232-213413184-212966784-212593856-212320288-212147632-212047616
1956.43-211978816-211892480-211746896-211522608-211223120-210874832-210517584
1953.05-210194704-209940320-209765008-209656288-209580416-209492400-209346704
1949.68-209113952-208787408-208387488-207954624-207541504-207197568-206952816
1946.31-206813360-206756240-206736448-206698160-206592528-206386352-206078656
1942.93-205693664-205279568-204891936-204580560-204373600-204269792-204239776
1939.56-204230512-204185472-204053872-203806624-203446576-203003408-202528192
1936.18-202076896-201698400-201417696-201233216-201119392-201030176-200919840
1932.81-200750048-200505712-200194192-199846160-199500656-199194784-198953200
1929.43-198776880-198646944-198524688-198371712-198156944-197866288-197509984
1926.06-197119680-196738944-196409712-196159888-195995248-195898496-195828992
1922.68-195741536-195593520-195363168-195050128-194680336-194299584-193955344
1919.31-193688304-193516464-193433424-193406816-193388544-193326656-193180128
1915.93-192932288-192591072-192188880-191774448-191397488-191094912-190884736
1912.56-190757344-190678720-190603616-190486160-190292304-190010496-189656752
1909.18-189265376-188885200-188561504-188326400-188186368-188120512-188088080
1905.81-188035088-187912048-187688144-187356592-186940816-186485456-186047376
1902.43-185676416-185406352-185240144-185156224-185107024-185040464-184907344
1899.06-184683536-184367392-183987536-183589936-183224128-182930352-182725040
1895.68-182598576-182516192-182428976-182288640-182061408-181737904-181335808
1892.31-180895968-180467024-180096944-179815088-179625360-179506160-179417248
1888.93-179311248-179148528-178907504-178592032-178228816-177859744-177529968
1885.56-177273008-177102128-177006048-176950576-176889312-176773232-176568768
1882.18-176264000-175871776-175427552-174981008-174579568-174262640-174043168
1878.81-173910832-173832704-173764608-173659696-173484704-173227712-172898368
1875.43-172530224-172164304-171843888-171597408-171434272-171338624-171275952
1872.06-171201632-171073376-170862368-170563120-170191472-169784192-169387216
1868.68-169039952-168769312-168577216-168440432-168318816-168166160-167941360
1865.31-167625008-167221888-166763056-166299328-165884368-165564544-165360912
1861.93-165264432-165237552-165223312-165158544-164993424-164702320-164292976
1858.56-163802256-163288784-162812480-162424576-162145536-161968240-161854464
1855.19-161749760-161600000-161366576-161038144-160630864-160188176-159761328
1851.81-159398640-159127408-158945696-158825648-158720192-158576432-158356384
1848.44-158045136-157656928-157232608-156825440-156484464-156241552-156097664
1845.06-156022640-155962864-155854704-155643888-155301808-154832624-154274960
1841.69-153689904-153148944-152708672-152402016-152224432-152140192-152087504
1838.31-151997744-151813632-151504272-151072864-150555184-150010352-149503536
1834.94-149088768-148794096-148614992-148514032-148434256-148313104-148098144
1831.56-147765584-147320912-146800256-146261248-145763872-145356704-145062960
1828.19-144875808-144758416-144659280-144523296-144308384-143995600-143594720
1824.81-143137984-142669104-142230496-141850912-141535584-141264624-141003424
1821.44-140709552-140351312-139915616-139413232-138879360-138362080-137908432
1818.06-137553760-137305968-137146752-137032976-136908720-136719088-136425424
1814.69-136016608-135509264-134946560-134380448-133867264-133442040-133116304
1811.31-132870408-132663128-132438816-132145056-131748736-131241960-130646616
1807.94-130008872-129385744-128830016-128377168-128034440-127777616-127560472
1804.56-127326904-127024408-126620816-126113144-125526248-124908056-124312064
1801.19-123782944-123344736-122988600-122677776-122357048-121968256-121470600
1797.81-120848568-120123144-119346208-118584864-117906256-117357528-116950272
1794.44-116655256-116413560-116145152-115773960-115249208-114555968-113723816
1791.06-112816880-111917272-111101496-110420792-109885816-109463968-109086968
1787.69-108673256-108146544-107461176-106611424-105636808-104607976-103607208
1784.31-102708672-101950184-101329552-100799840-100285592-99702360-98980192
1780.94-98085504-97024456-95844272-94618480-93423040-92315424-91321008
1777.56-90422944-89571800-88698136-87734392-86633568-85379216-83990760
1774.19-82513336-81001152-79505848-78051480-76635776-75226392-73769536
1770.81-72209264-70501600-68627520-66596752-64446524-62229584-59998176
1767.44-57790912-55618948-53462512-51275492-48996120-46560080-43918676
1764.07-41050052-37961648-34688668-31282390-27793284-24256758-20677748
1760.69-17027126-13245914-9260117-4996319-401862+4542689+9818315+15375800
1756.83+21152162+27089856+33158812+39368700+45772144+52451604+59499816+66997028
1752.98+74987360+83470120+92397024+101689528+111255232+121020232+130943904
1749.60+141030512+151325728+161901504+172828192+184155696+195892832+207999312
1746.23+220393136+232964400+245604480+258221760+270765216+283231552+295659392
1742.85+308110656+320654944+333338688+346168736+359103072+372053856+384905472
1739.48+397532992+409837760+421758016+433288288+444468768+455372256+466072448
1736.10+476619776+487016224+497210880+507103136+516567808+525483680+533763360
1732.73+541371840+548331840+554703616+560559872+565949952+570872640+575263616
1729.35+578996032+581906496+583823680+584604096+584160384+582467200+579556800
1725.98+575495424+570349952+564161088+556922816+548577920+539030464+528168224
1722.60+515900640+502179520+487025952+470525696+452828256+434115424+414575648
1719.23+394376448+373645024+352459520+330866464+308898368+286600832+264059808
1715.85+241414912+218853984+196597152+174865936+153850544+133687240+114445824
1712.48+96135952+78725568+62171268+46444480+31549538+17526452+4444464-7625810
1708.62-18630890-28562406-37462780-45424152-52576456-59057352-64995380
1705.25-70480184-75560440-80240264-84496608-88295776-91616320-94463184
1701.87-96876584-98927176-100706136-102306288-103801704-105236160-106613080
1698.50-107904464-109059888-110027072-110769576-111281296-111593352-111769824
1695.12-111891544-112043256-112286312-112648064-113112296-113626576-114116024
1691.75-114506552-114743136-114809368-114732256-114576400-114429112-114373736
1688.37-114468984-114730616-115127976-115591152-116029552-116358888-116525184
1685.00-116516288-116369424-116158328-115971912-115888256-115951160-116157672
1681.62-116461960-116786968-117048056-117184040-117167248-117021064-116808040
1678.25-116611792-116518600-116581824-116814944-117180080-117601120-117984256
1674.87-118244592-118330488-118238336-118012888-117733448-117490520-117358512
1671.50-117373984-117522784-117743984-117944112-118027376-117920744-117597840
1668.12-117085920-116465248-115841816-115323336-114989600-114865712-114924024
1664.75-115081848-115230752-115263040-115101608-114722056-114160192-113497688
1661.37-112844264-112299512-111931120-111752024-111721672-111754000-111746744
1658.00-111611168-111295152-110801576-110182520-109526040-108926848-108460280
1654.62-108155464-107988672-107886288-107743928-107458536-106958696-106223800
1651.25-105291368-104247520-103201976-102256984-101479176-100881952-100415736
1647.87-99981904-99455248-98714800-97674192-96302936-94631424-92742784
1644.50-90747248-88757984-86861152-85102240-83477496-81952480-80472680
1641.13-78999120-77522136-76079456-74749656-73639848-72857944-72484808
1637.75-72550344-73021768-73806968-74774376-75780888-76707568-77480744
1634.38-78091864-78588400-79057504-79596240-80281272-81143168-82159448
1631.00-83255976-84329448-85274024-86010624-86507792-86790288-86932024
1627.63-87034824-87199504-87498560-87957232-88545512-89187856-89787184
1624.25-90250808-90513328-90560848-90429256-90196640-89958016-89802144
1620.88-89782864-89904848-90126184-90368112-90540240-90567488-90413640
1617.50-90089968-89655896-89201160-88819488-88582416-88519240-88607024
1614.13-88776928-88936848-88996368-88890976-88603032-88168080-87661880
1610.75-87183864-86822896-86639560-86639896-86780968-86977272-87128976
1607.38-87147944-86983920-86639232-86168704-85663480-85227080-84945440
1604.00-84862208-84967408-85199784-85462432-85650504-85680120-85511368
1600.63-85158504-84684736-84187912-83769280-83504808-83426528-83513136
1597.25-83693344-83869872-83945136-83848552-83556776-83100736-82554992
1593.88-82018472-81585856-81318848-81232520-81288184-81406192-81489856
1590.50-81451192-81238176-80849120-80330960-79770680-79265336-78898368
1587.13-78714192-78705520-78815624-78952416-79017808-78932064-78658808
1583.75-78215008-77664992-77103528-76631440-76324576-76214376-76280488
1580.38-76457808-76649136-76761656-76724928-76511568-76145248-75690696
1577.00-75234080-74858576-74621016-74533144-74561880-74639056-74680496
1573.63-74613672-74397480-74034560-73570328-73078264-72638280-72316272
1570.25-72138704-72089544-72108944-72116304-72027344-71784872-71371448
1566.88-70818456-70197424-69600696-69118336-68813680-68704192-68759104
1563.50-68906752-69054720-69118000-69034968-68789904-68411216-67964824
1560.13-67535440-67195448-66991092-66923084-66945864-66983720-66947544
1556.75-66764944-66400732-65868568-65229032-64575952-64012260-63621536
1553.38-63447116-63476968-63647696-63857988-63999516-63979728-63749988
1550.01-63322332-62756716-62153740-61623812-61254244-61093112-61126348
1546.63-61291840-61492908-61625488-61613072-61421080-61073980-60642560
1543.26-60223168-59909848-59761740-59782560-59920932-60076084-60128136
1539.88-59971976-59550812-58871576-58010032-57090752-56252888-55615920
1536.51-55245248-55136928-55220352-55374420-55465912-55380136-55059216
1533.13-54511492-53812556-53080116-52443792-52000980-51800592-51818444
1529.76-51969664-52130292-52175756-52010072-51598176-50972648-50226344
1526.38-49487936-48881164-48495456-48356536-48419928-48583124-48714280
1523.01-48685620-48409812-47865204-47099200-46212196-45335716-44588288
1519.63-44046328-43722456-43563044-43466104-43310388-42991840-42452960
1516.26-41701740-40808672-39885904-39056548-38418468-38013760-37822552
1512.88-37760956-37710532-37550440-37190296-36598524-35812248-34920736
1509.51-34043860-33297896-32759232-32440868-32289302-32195036-32024126
1506.13-31657182-31015426-30091546-28941966-27674418-26417524-25282108
1502.76-24332244-23570494-22934074-22314186-21587978-20650852-19442996
1499.38-17968160-16286624-14499024-12714748-11024332-9467587-8028660-6639305
1495.53-5198278-3605498-1788063+273313+2542088+4929442+7322905+9613937+11724304
1491.19+13632592+15374765+17033654+18714208+20510576+22475678+24603462+26829042
1487.33+29038676+31105288+32917040+34410128+35584392+36506996+37288852+38060496
1483.47+38933320+39969824+41170888+42470584+43761824+44922324+45853324+46504248
1479.62+46887624+47081244+47197320+47359420+47660624+48145276+48787996+49509184
1475.76+50193036+50721388+51010208+51035340+50838484+50521236+50220080+50065848
1471.90+50154304+50519496+51126444+51881032+52662364+53355704+53886912+54244184
1468.05+54485308+54717364+55073700+55672868+56588472+57824840+59320580+60958608
1464.19+62608256+64151024+65521492+66718708+67806000+68888784+70082136+71473360
1460.33+73095280+74913448+76831912+78718344+80437808+81890848+83037896+83910704
1456.47+84598376+85219272+85880928+86645408+87506408+88384640+89149776+89646240
1452.62+89744064+89367840+88521312+87290072+85818752+84277912+82818904+81538408
1448.76+80455792+79513520+78599584+77576896+76332192+74805584+73011568+71034672
1444.90+69008728+67077756+65358716+63907864+62703228+61651144+60611352+59431904
1441.05+57995932+56248212+54213960+51990148+49720952+47556036+45610488+43933996
1437.19+42497728+41201844+39904456+38465684+36786752+34839792+32680670+30428728
1433.33+28239666+26259896+24588070+23248372+22187118+21286714+20403516+19409420
1429.48+18231042+16871188+15410620+13982320+12738478+11799193+11224064+10990328
1425.62+10999793+11104095+11148674+11011498+10641134+10070538+9405961+8796915
1421.76+8394853+8309907+8577132+9149667+9910702+10703260+11378293+11834830
1417.91+12052451+12094118+12091191+12208618+12592271+13333891+14440133+15832627
1414.05+17365166+18864178+20179736+21219006+21981168+22548602+23069482+23709910
1410.19+24610898+25841892+27382892+29127180+30913080+32563618+33935076+34962316
1406.33+35667720+36157816+36589824+37126280+37886764+38910724+40147684+41470924
1402.48+42712288+43710644+44358988+44632544+44601896+44410704+44240592+44259220
1398.62+44578912+45224668+46134516+47178496+48200720+49063896+49693912+50097252
1394.76+50362280+50631000+51056808+51757964+52779020+54074192+55514676+56920552
1390.91+58102828+58918048+59299756+59276124+58958996+58518196+58124168+57907060
1387.05+57919304+58122244+58395188+58576816+58508220+58082352+57277160+56164640
1383.19+54894040+53651600+52612776+51891860+51514800+51413036+51442360+51426828
1379.34+51205856+50683348+49851960+48793924+47664460+46644172+45889908+45493952
1375.48+45462596+45715704+46111864+46492572+46729212+46755176+46591372+46330700
1371.62+46112736+46078764+46325124+46873332+47657140+48533924+49322372+49847600
1367.77+49984548+49692340+49023956+48108140+47117152+46217100+45523736+45075932
1363.91+44827760+44665632+44445876+44037064+43368420+42442224+41345688+40223836
1360.05+39240596+38533452+38176208+38157792+38386796+38717480+38993276+39085564
1356.19+38938880+38579328+38108968+37678124+37439448+37503720+37907784+38604176
1352.34+39475252+40359456+41106880+41612172+41851368+41882336+41832752+41861108
1348.48+42114248+42680792+43569812+44707076+45952800+47141900+48126968+48819388
1344.62+49210572+49375572+49449356+49587680+49922792+50530312+51403784+52460684
1340.77+53565132+54566912+55343904+55836844+56066912+56129672+56170588+56343852
1336.91+56766664+57495096+58500344+59686940+60916052+62047756+62985196+63701356
1333.05+64251484+64761732+65389060+66286536+67555856+69220184+71219392+73427168
1329.20+75686456+77856624+79849672+81658536+83355576+85071632+86953400+89115464
1325.34+91601984+94365096+97270608+100123128+102711056+104858320+106460576
1321.96+107506936+108073336+108293024+108314208+108254208+108166800+108026168
1318.59+107742416+107191912+106264344+104897088+103114080+101021744+98797832
1315.21+96649056+94765712+93279048+92235024+91589952+91229248+91007504+90795144
1311.36+90517520+90177824+89863464+89718416+89905032+90562464+91762720+93493360
1307.50+95660696+98110136+100675472+103216976+105662536+108025624+110396536
1304.13+112917224+115731056+118940376+122564952+126526784+130660408+134742480
1300.75+138539232+141854816+144570352+146659632+148181360+149247344+149983680
1297.38+150479920+150769184+150809296+150507744+149748512+148442208+146558960
1294.00+144158064+141384384+138442080+135559760+132933872+130693952+128879288
1290.63+127437816+126254648+125190176+124126976+123007096+121850088+120747184
1287.25+119836488+119260440+119123728+119461496+120227616+121302600+122526128
1283.88+123739976+124824328+125738032+126519616+127276872+128156216+129293536
1280.50+130781336+132634016+134784528+137101344+139423472+141602640+143541616
1277.13+145224704+146713936+148134240+149635984+151352304+153357520+155651536
1273.75+158155696+160735824+163240976+165544336+167577104+169347984+170934896
1270.38+172465344+174073104+175859824+177865264+180050768+182312112+184504656
1267.00+186484304+188143296+189438992+190403136+191127920+191739808+192357856
1263.63+193063152+193875728+194751456+195596256+196299952+196766256+196945440
1260.25+196845552+196536576+196125936+195733344+195456416+195349616+195412928
1256.88+195593504+195810976+195978560+196029568+195937616+195720320+195435312
1253.50+195158224+194963552+194902080+194988320+195197312+195470736+195739584
1250.13+195934496+196006816+195941648+195753728+195484864+195187408+194911808
1246.75+194687968+194525248+194405824+194291168+194136176+193898832+193550192
1243.38+193084416+192516240+191877808+191210368+190551696+189927808+189347616
1240.00+188801232+188263200+187699632+187079088+186379472+185596448+184740688
1236.63+183838928+182924496+182027888+181168800+180352336+179565648+178783392
1233.25+177973776+177109904+176175168+175168768+174105344+173012816+171922528
1229.88+170856848+169830112+168836848+167858624+166868048+165834384+164738624
1226.50+163573616+162351920+161101184+159859520+158661488+157537136+156497776
1223.13+155540768+154644336+153781088+152921712+152043088+151137792+150212912
1219.76+149291760+148404480+147584800+146860800+146249376+145756928+145375840
1216.38+145089648+144880288+144729744+144628240+144576128+144582080+144661952
1213.01+144832880+145112176+145509840+146030736+146672080+147426704+148288048
1209.63+149247888+150309200+151477168+152764960+154186992+155756512+157483536
1206.26+159368368+161404208+163577600+165872704+168276528+170781696+173388672
1202.88+176108448+178958160+181957200+185120816+188455232+191955344+195602496
1199.51+199370048+203228096+207145136+211102208+215088192+219104144+223161072
1196.13+227270688+231446208+235691072+239996624+244347440+248718896+253087248
1192.76+257432240+261745152+266030464+270302784+274585216+278901440+283269568
1189.38+287698336+292180992+296702400+301238144+305766400+310269664+314744992
1186.01+319199744+323652544+328128032+332648224+337227520+341869792+346562304
1182.63+351284928+356012800+360721280+365395200+370033024+374643040+379241056
1179.26+383849024+388481600+393145056+397831264+402523744+407194048+411813376
1175.88+416358464+420815552+425182720+429470944+433698336+437886080+442049152
1172.51+446195360+450317728+454402016+458424192+462359168+466183936+469882048
1169.13+473445600+476872736+480165792+483327296+486355648+489246752+491989856
1165.76+494573184+496987104+499226432+501294016+503199456+504957216+506582080
1162.38+508086368+509475968+510747552+511887072+512876448+513696896+514332800
1159.01+514775904+515030368+515110784+515040192+514847840+514560768+514204864
1155.63+513794880+513338816+512834656+512274688+511647040+510940640+510146592
1152.26+509261120+508286240+507227072+506089760+504879744+503599392+502242976
1148.88+500802336+499265376+497617728+495846752+493943712+491906400+489735776
1145.51+487436832+485014112+482468256+479795872+476989088+474035296+470921280
1142.13+467635392+464175488+460544512+456754336+452820992+448763200+444596416
1138.76+440332192+435975296+431526016+426984288+422349504+417629344+412835200
1135.38+407986240+403104736+398214240+393332800+388476288+383651904+378866688
1132.01+374124544+369434080+364809280+360269408+355839360+351543360+347403360
1128.64+343432160+339634080+336000736+332516544+329160352+325912192+322753568
1125.26+319675456+316673184+313751680+310916224+308173248+305525728+302968896
1121.89+300493632+298082944+295717536+293376512+291041184+288696192+286334144
1118.51+283950016+281544416+279120608+276681280+274227424+271757408+269266112
1115.14+266746144+264189120+261588544+258942256+256248960+253515072+250747728
1111.76+247955152+245144400+242318096+239475184+236611088+233719152+230794416
1108.39+227834288+224843392+221831392+218816608+215819232+212856880+209946864
1105.01+207096864+204308064+201572336+198878352+196210736+193554048+190900528
1101.64+188246176+185596640+182961232+180357248+177800688+175308352+172891920
1098.26+170556288+168300880+166117744+163992160+161908768+159850096+157803936
1094.89+155763392+153729536+151711216+149724848+147790560+145927744+144153184
1091.51+142476656+140898880+139413936+138010160+136671600+135384896+134139192
1088.14+132928664+131754560+130619672+129529544+128491832+127509848+126588064
1084.76+125727288+124930872+124200920+123542008+122956808+122446688+122010896
1081.39+121641888+121329608+121059032+120817096+120592872+120382976+120190432
1078.01+120026504+119905304+119842024+119846320+119920680+120060112+120250856
1074.64+120476480+120720360+120971224+121225344+121485016+121758328+122055616
1071.26+122381032+122737432+123115712+123506224+123892472+124261416+124605344
1067.89+124921560+125217032+125500896+125785136+126080336+126392592+126723696
1064.51+127069352+127426336+127789104+128157296+128533248+128923584+129339440
1061.14+129789800+130284544+130830144+131427896+132075328+132765272+133488600
1057.76+134231696+134980736+135720096+136432656+137105312+137722176+138275488
1054.39+138757296+139163616+139494384+139751040+139933552+140043888+140080624
1051.01+140042640+139926528+139730336+139452448+139092880+138652400+138133008
1047.64+137536928+136867408+136127952+135323792+134463280+133555592+132614976
1044.26+131655296+130688760+129725056+128767760+127813480+126854680+125879712
1040.89+124878760+123844504+122777512+121682664+120573384+119464000+118368792
1037.52+117298120+116258024+115246488+114257080+113280840+112308688+111332400
1034.14+110346832+109349664+108340560+107319344+106288896+105251512+104209880
1030.77+103171128+102141448+101130248+100146032+99196760+98288792+97422240
1027.39+96595864+95805512+95045160+94308224+93592016+92894048+92216968+91560568
1023.53+90930696+90329624+89762808+89234136+88752592+88324344+87958040+87662832
1019.68+87442776+87299432+87228744+87222208+87269040+87357584+87478480+87626424
1015.82+87801600+88006480+88248328+88528560+88851440+89211496+89601848+90012768
1011.96+90433296+90855664+91274728+91687664+92094096+92494400+92884664+93259752
1008.11+93612032+93931048+94208656+94437200+94618112+94753488+94851120+94920760
1004.25+94969144+95002456+95021952+95023896+95002280+94952656+94870080+94755432
1000.39+94613144+94452968+94286072+94127336+93987744+93880040+93810240+93784552
996.54+93803512+93868520+93976936+94127512+94315840+94540144+94795304+95076000
992.68+95377288+95694024+96020192+96352952+96691080+97037040+97396176+97776280
988.82+98186952+98635824+99130392+99671176+100257344+100881456+101534824
985.45+102206112+102886968+103571368+104258416+104954344+105668408+106411120
982.07+107192632+108021528+108900000+109823800+110783888+111769072+112767440
978.70+113768480+114768248+115763360+116757392+117755176+118760440+119777504
975.32+120807264+121847760+122900080+123963896+125040632+126136240+127257688
971.95+128412760+129603616+130829248+132080176+133339712+134588496+135804208
968.57+136968816+138070592+139107104+140085104+141017728+141920928+142810704
965.20+143695712+144579376+145457360+146319360+147152224+147943808+148684496
961.82+149367968+149993424+150563568+151081232+151549648+151972048+152352560
958.45+152693888+153001456+153284096+153549952+153806960+154062720+154318496
955.07+154571776+154814224+155033344+155215920+155350928+155430560+155453728
951.70+155425664+155356352+155258816+155147888+155033888+154925136+154824720
948.32+154731360+154638352+154538672+154420528+154273456+154085696+153847824
944.95+153551744+153192224+152768576+152283680+151744848+151162176+150549472
941.57+149918304+149280752+148642256+148005360+147364448+146708880+146023712
938.20+145292160+144499328+143633888+142692336+141678480+140605216+139491488
934.82+138360944+137236944+136141600+135090704+134091392+133146488+132249808
931.45+131394336+130570520+129771504+128992264+128232400+127494264+126780144
928.07+126097008+125447160+124833280+124258384+123723688+123232928+122790032
924.70+122398736+122063128+121785328+121564080+121394712+121267552+121171880
921.33+121094080+121022736+120950312+120871816+120788848+120708024+120638464
917.95+120593584+120585184+120624880+120721248+120877176+121091936+121357144
914.58+121661912+121990144+122324320+122647432+122947152+123216288+123456640
911.20+123677680+123894448+124127872+124397296+124717968+125099560+125539048
907.83+126026424+126542024+127061112+127559864+128016936+128417592+128755576
904.45+129033864+129262680+129455656+129631424+129804688+129991240+130200408
901.08+130437216+130702392+130994160+131303536+131622096+131937640+132238864
897.70+132515160+132760240+132972304+133156904+133322120+133482680+133654376
894.33+133850512+134081528+134349552+134650304+134973552+135307440+135637776
890.95+135956816+136261152+136553648+136844032+137143616+137463712+137810848
887.58+138190048+138595904+139022352+139458736+139893776+140319136+140727648
884.20+141112992+141470832+141794288+142075120+142302992+142466752+142556656
880.83+142566016+142494496+142350368+142149504+141913360+141667488+141437856
877.45+141245520+141106320+141023856+140994144+141004768+141035008+141064912
874.08+141073728+141049600+140987296+140892224+140778432+140665712+140575152
870.70+140525632+140528688+140585600+140690368+140826144+140973968+141112080
867.33+141223728+141297744+141329440+141324944+141290720+141241376+141188432
863.95+141144128+141116048+141110640+141128112+141165568+141219040+141279920
860.58+141335936+141375552+141386704+141356640+141278112+141146672+140962800
857.20+140733584+140468752+140182496+139887824+139600208+139330240+139087136
853.83+138876224+138702064+138562256+138453056+138365264+138289344+138212160
850.45+138119520+138002064+137852944+137673440+137474336+137270032+137079952
847.08+136923504+136815984+136764192+136763488+136802320+136862192+136919728
843.70+136955344+136954432+136908400+136818864+136691920+136539632+136373696
840.33+136209024+136054960+135922672+135822000+135760896+135747040+135785520
836.95+135874848+136010736+136179184+136361456+136535856+136680224+136779488
833.58+136826592+136826064+136793152+136752160+136730576+136754672+136846192
830.20+137015040+137264640+137585488+137965184+138384880+138827472+139276800
826.83+139721152+140152432+140567760+140969104+141365104+141767280+142196528
823.46+142673408+143220096+143857040+144595248+145432832+146355632+147334128
820.08+148328656+149295744+150191776+150983296+151651216+152189328+152604576
816.71+152913216+153131472+153272352+153340528+153328768+153221536+152999280
813.33+152641824+152135456+151475552+150669440+149733344+148693344+147579936
809.96+146425088+145258608+144110112+143005664+141967760+141015024+140162160
806.58+139417888+138784464+138254624+137812656+137436928+137100992+136777504
803.21+136444704+136088032+135703552+135297744+134885696+134488784+134128768
799.83+133824296+133587744+133421248+133319424+133267520+133245976+133232144
796.46+133204672+133144688+133040352+132885384+132681416+132437424+132166696
793.08+131889896+131628376+131402064+131230488+131126584+131096800+131137352
789.71+131238384+131381424+131546168+131708960+131850408+131955592+132015728
786.33+132029368+132003696+131949672+131882888+131821688+131782552+131781664
782.96+131831552+131942136+132115360+132348016+132628624+132941592+133263928
779.58+133573368+133847824+134071640+134239600+134357280+134443872+134527952
776.21+134642048+134821184+135091440+135467392+135949808+136521472+137151888
772.83+137802048+138431648+139004896+139496720+139897728+140215632+140472528
769.46+140703344+140947680+141242112+141618496+142095648+142679536+143361936
766.08+144123632+144937632+145774960+146607664+147413536+148178656+148897216
762.71+149574576+150221216+150856816+151501584+152175040+152893696+153667872
759.33+154499040+155379344+156292128+157213712+158115296+158968784+159747872
755.96+160431232+161005808+161468944+161821696+162075280+162243616+162343760
752.58+162393280+162409424+162407056+162393632+162371328+162331600+162255408
749.21+162111568+161863424+161466960+160885040+160090976+159074240+157848480
745.83+156449264+154931648+153362768+151813520+150345328+149006448+147824128
742.46+146804320+145934944+145191184+144540608+143954368+143405536+142876288
739.08+142358480+141851568+141362224+140900336+140480992+140118784+139828800
735.71+139621264+139500496+139463600+139497264+139579696+139681200+139769392
732.34+139813664+139791344+139690736+139511840+139268704+138986368+138695408
728.96+138427872+138211456+138066096+138002784+138021664+138110704+138254080
725.59+138424096+138595184+138738224+138828912+138847984+138785360+138641072
722.21+138426432+138160720+137872192+137589616+137343408+137154944+137039136
718.84+136998848+137026368+137104944+137210864+137318416+137401504+137438176
715.46+137415536+137325968+137176336+136979984+136758096+136537840+136347808
712.09+136213520+136155632+136185120+136302320+136496832+136750352+137036976
708.71+137327040+137592128+137807968+137958160+138032272+138034256+137975792
705.34+137878832+137774160+137695376+137676128+137744304+137917872+138198848
701.96+138573776+139012272+139475120+139918064+140300064+140593152+140785808
698.59+140885024+140914912+140912208+140915984+140964064+141081648+141279920
695.21+141553840+141885792+142247520+142607824+142934480+143204416+143399408
691.84+143514768+143555840+143539264+143491504+143443936+143429696+143481248
688.46+143620192+143857040+144186544+144589472+145034832+145482784+145895824
685.09+146242512+146505360+146678576+146774912+146814976+146827424+146842944
681.71+146886064+146979168+147134176+147355424+147640400+147980992+148364416
678.34+148772256+149180880+149567184+149907632+150183280+150382192+150505024
674.96+150564656+150584880+150597712+150636560+150731776+150905232+151166704
671.59+151512048+151926496+152385824+152863680+153332192+153767696+154152256
668.21+154475344+154729728+154918800+155048736+155135776+155199632+155266240
664.84+155362864+155516512+155748000+156069648+156477328+156957840+157481184
661.46+158013680+158516016+158956096+159309088+159567712+159736800+159837040
658.09+159898304+159956656+160046752+160198464+160430880+160750688+161152672
654.71+161614208+162103584+162580320+163000528+163326448+163526976+163588688
651.34+163516800+163335152+163083632+162813824+162575056+162410704+162348480
647.96+162395632+162541312+162756864+163002336+163238432+163427168+163546384
644.59+163583600+163542384+163438768+163295040+163140080+163003984+162915792
641.22+162901648+162983296+163175088+163484320+163906656+164427280+165017888
637.84+165645856+166269952+166854048+167367024+167791216+168124368+168379232
634.47+168584304+168773760+168988480+169264512+169631680+170110400+170706912
631.09+171415488+172221056+173099312+174021920+174964880+175907584+176851696
627.72+177784464+178712416+179652512+180619600+181628448+182686448+183787408
624.34+184925168+186067408+187198752+188313344+189419216+190535584+191682800
620.97+192873568+194087936+195316592+196515104+197641392+198652000+199541312
617.59+200327408+201072720+201862736+202782832+203902560+205251408+206815328
614.22+208532368+210308928+212036896+213633168+214969776+215966720+216579648
610.84+216787440+216603312+216069856+215272608+214312272+213326976+212444848
607.47+211780736+211405760+211334528+211511856+211836096+212128272+212320064
604.09+212342400+212188448+211897936+211558176+211249808+211025456+210828960
600.72+210673616+210485824+210196592+209769616+209200896+208538096+207845408
597.34+207142736+206485200+205851392+205190096+204418128+203490144+202393024
593.97+201178256+199922112+198732288+197686752+196796160+196027008+195276576
590.59+194437744+193413760+192192896+190814784+189387344+188059456+186926480
587.22+186057536+185396560+184837040+184221328+183384784+182222784+180733520
583.84+178996128+177156032+175369040+173742704+172322432+171026240+169719888
580.47+168259632+166510672+164433808+162092320+159633504+157260064+155125456
577.09+153335456+151882032+150653360+149455920+148041280+146213120+143859904
573.72+140913824+137439984+133583968+129518960+125435880+121486992+117758216
570.34+114265640+111018928+107952824+104975688+101982632+98849832+95471928
566.97+91797936+87736368+83398640+78912712+74419872+70108664+66128280+62545176
563.11+59339136+56327592+53353432+50182740+46605664+42524876+37923592+32984334
559.26+27927502+23071556+18668132+14894054+11777845+9237389+7081922+5110128
555.40+3139857+1097522-1044314-3194834-5271869-7184592-8953499-10627367
551.54-12359672-14271443-16488815-18997798-21709480-24428808-26951262-29112040
547.68-30869554-32286590-33573800-34976972-36710252-38880972-41427292-44111508
543.83-46621488-48575368-49757908-50090204-49722524-48961400-48244924-47977844
539.97-48451964-49742072-51768604-54216388-56756912-58998228-60736576-61829552
536.11-62377904-62517492-62518496-62582248-62823484-63279732-63886496-64523976
532.26-65061752-65375860-65472396-65380552-65196852-65031248-65002080-65207244
528.40-65710376-66486512-67519032-68723944-69991272-71171408-72146064-72769344
524.54-72973960-72709496-72016976-70965664-69691400-68330176-67025268-65877952
520.69-64972580-64335864-63982076-63883476-64029360-64378784-64911560-65519320
516.83-66105844-66511312-66556544-66107184-65063764-63467240-61443904-59273352
512.97-57300172-55844292-55222376-55551680-56836260-58866868-61346224-63900916
509.12-66231844-68124896-69524712-70482864-71197504-71888216-72716184-73769192
505.26-74986200-76230736-77304832-77996416-78191976-77882280-77211360-76374328
501.40-75652296-75242432-75306568-75840000-76773008-77875264-78973104-79845056
497.54-80384984-80559712-80419328-80082184-79661616-79249992-78887024-78551032
493.69-78200656-77735752-77138248-76383680-75517352-74608656-73753160-73039488
489.83-72528280-72242376-72190872-72309920-72577432-72915784-73318288-73718064
485.97-74097056-74421872-74689512-74885640-75009248-75071392-75106136-75143888
482.12-75228064-75344656-75496304-75646280-75722432-75649280-75372376-74850224
478.26-74147184-73321632-72519920-71890552-71585192-71686200-72236688-73157160
474.40-74337664-75581144-76691544-77487088-77804176-77617264-76948624-75924160
470.55-74710232-73516512-72526936-71829352-71494208-71457744-71608944-71763800
466.69-71776168-71492872-70863616-69912968-68760776-67584680-66603120-66037476
462.83-66032116-66672472-67947072-69736248-71859120-74054280-76059752-77610256
458.98-78492640-78543696-77730744-76086136-73748144-70949600-67979224-65126788
455.12-62694980-60883628-59833608-59563240-59977016-60913840-62135620-63427324
451.26-64609144-65511948-66107184-66358176-66353148-66110200-65711040-65172380
447.40-64515932-63764752-62921116-62027564-61142124-60358496-59764764-59431232
443.55-59388236-59603880-60004552-60440428-60791636-60937004-60820504-60463936
439.69-59958544-59447692-59101360-59028800-59309296-59891380-60686548-61481832
435.83-62112800-62384276-62204076-61561384-60569028-59395628-58289288-57459508
431.98-57096800-57281016-58013052-59180980-60611672-62072532-63355876-64253040
428.12-64660444-64496148-63845244-62776512-61468744-60084812-58834612-57835948
424.26-57200340-56925344-56984852-57266560-57646388-57982476-58197212-58222084
420.41-58100432-57856784-57591936-57388584-57322024-57406056-57639664-57981804
416.55-58407904-58872580-59399996-59984068-60662032-61396912-62176228-62844284
412.69-63285432-63304888-62787916-61686244-60049552-58068504-56011436-54184756
408.83-52875768-52267352-52433696-53284788-54642712-56244820-57819812-59123868
404.98-60039812-60473668-60436740-59991792-59217596-58188476-56984180-55657964
401.12-54288068-52959260-51764224
##END=
