##TITLE=dep11
##JCAMP-DX=4.24
##DATA TYPE=INFRARED SPECTRUM
##DATE=2017/5/23
##SAMPLING PROCEDURE=Thin Film
##ORIGIN=Default
##XUNITS=1/CM
##YUNITS=ABSORBANCE
##RESOLUTION=4
##FIRSTX=4000.1223
##LASTX=400.15686
##DELTAX=-0.4821167
##MAXY=0.79491001
##MINY=-0.12034661
##XFACTOR=1
##YFACTOR=7.4031764e-010
##NPOINTS=7468
##FIRSTY=-0.099831901
##XYDATA=(X++(Y..Y))
4000.12-134850091-134887152-134970624-135093216-135238848-135391600-135534656
3996.75-135661296-135767504-135860656-135946816-136033840-136123104-136212208
3993.37-136292592-136355840-136394368-136411760-136416096-136426224-136462032
3990.00-136543328-136678960-136867168-137090192-137319952-137523216-137669456
3986.62-137739136-137729504-137653520-137541360-137430496-137356688-137348496
3983.25-137418832-137564304-137766352-137994048-138216160-138402112-138536256
3979.87-138611088-138634768-138620960-138593584-138571488-138568736-138592688
3976.50-138641728-138710016-138784592-138856352-138919056-138970208-139013296
3973.12-139053904-139100752-139158128-139228736-139310576-139398592-139488128
3969.75-139576448-139663600-139754032-139853872-139969520-140099568-140240432
3966.37-140377904-140493280-140567520-140586848-140546992-140460032-140347632
3963.00-140243456-140180352-140184816-140268560-140425568-140631568-140851408
3959.62-141046256-141186016-141253856-141254192-141207136-141147712-141108832
3956.25-141121264-141197520-141334048-141510160-141696448-141859824-141976608
3952.87-142036672-142044688-142021744-141995888-141995776-142043696-142146240
3949.50-142300384-142483552-142670736-142829568-142939040-142986992-142974992
3946.13-142918752-142840544-142768992-142726720-142728320-142781168-142877984
3942.75-143005680-143146400-143286656-143412944-143524992-143624688-143720432
3939.38-143819328-143926912-144042080-144158432-144265472-144352736-144412448
3936.00-144443984-144453104-144453168-144457920-144484160-144538832-144623168
3932.63-144730432-144845776-144952832-145036800-145086384-145103152-145094352
3929.25-145074960-145061920-145072016-145115760-145195696-145307328-145438832
3925.88-145574544-145699216-145800880-145874352-145921904-145951952-145977904
3922.50-146012640-146068464-146151392-146261584-146390848-146528416-146660720
3919.13-146772080-146856208-146908688-146935648-146942992-146944128-146949952
3915.75-146968624-147004928-147057408-147124512-147199872-147282032-147370384
3912.38-147464976-147568032-147680960-147801760-147923936-148038704-148134208
3909.00-148202016-148236224-148239984-148221792-148196912-148180944-148190592
3905.63-148231616-148306896-148406768-148517312-148620880-148703120-148755440
3902.25-148779856-148782720-148781104-148790048-148823648-148888592-148984832
3898.88-149103680-149232160-149353440-149457584-149535744-149589760-149625536
3895.50-149657184-149697376-149758704-149849072-149969152-150113408-150269520
3892.13-150421232-150551696-150648528-150704016-150718624-150701648-150667456
3888.75-150636144-150622992-150643712-150701968-150797424-150917904-151047280
3885.38-151167968-151263200-151325600-151352560-151351328-151334640-151314096
3882.00-151304592-151311936-151340688-151387536-151449648-151522736-151605536
3878.63-151698096-151800560-151912304-152030352-152144976-152243472-152312320
3875.25-152341008-152326064-152277360-152212896-152159216-152142096-152183328
3871.88-152288144-152448608-152639584-152828240-152978848-153065552-153076432
3868.50-153019856-152919424-152809008-152721968-152684608-152707232-152785296
3865.13-152900944-153029776-153150272-153247440-153319056-153374960-153431488
3861.75-153505984-153608576-153739408-153887680-154033024-154151760-154225328
3858.38-154242480-154206992-154131184-154040240-153959824-153914480-153917392
3855.01-153976336-154082672-154222272-154372896-154515488-154634768-154721744
3851.63-154780192-154819024-154852000-154892384-154951040-155032752-155134496
3848.26-155248288-155362160-155463520-155542800-155596032-155625200-155637168
3844.88-155642576-155650688-155667792-155694832-155727168-155756816-155775200
3841.51-155779232-155770112-155759008-155758208-155784528-155850704-155960176
3838.13-156105488-156270160-156429856-156560800-156643264-156671856-156652416
3834.76-156605408-156556736-156535840-156561600-156643216-156772992-156931264
3831.38-157089008-157219168-157300624-157326944-157306512-157259712-157213504
3828.01-157194720-157220560-157296784-157412016-157548256-157679280-157783920
3824.63-157848000-157871984-157866688-157852112-157849104-157872256-157927712
3821.26-158007312-158092992-158163808-158199584-158190720-158139728-158064032
3817.88-157987872-157940368-157944160-158011856-158139456-158311616-158501872
3814.51-158681616-158827520-158927600-158981088-159000560-159004992-159013360
3811.13-159040496-159092960-159166288-159248976-159324544-159377952-159399584
3807.76-159388176-159349504-159297632-159248592-159216384-159210160-159234352
3804.38-159283088-159347952-159417504-159480640-159529184-159560944-159575648
3801.01-159579104-159577456-159577616-159584960-159601808-159629504-159667584
3797.63-159714624-159771840-159838608-159918704-160011456-160117280-160231440
3794.26-160347392-160453152-160537200-160588464-160598896-160569424-160506448
3790.88-160425920-160346320-160287744-160267312-160291680-160359408-160458640
3787.51-160570544-160674400-160751888-160792928-160796656-160771984-160735872
3784.13-160707216-160702112-160730192-160793136-160882352-160985472-161086128
3780.76-161171840-161232352-161265872-161275856-161268848-161253600-161237616
3777.38-161224592-161216032-161211680-161209456-161209776-161212960-161220928
3774.01-161237664-161263264-161298432-161340928-161386816-161430592-161468240
3770.63-161496864-161515712-161525488-161529616-161528880-161525856-161521600
3767.26-161516448-161512416-161510672-161513696-161524944-161546512-161579536
3763.89-161621104-161668576-161714544-161755088-161786784-161808496-161822976
3760.51-161834544-161848560-161867936-161892704-161920576-161946304-161964784
3757.14-161973104-161972784-161967952-161967120-161976496-162001072-162039952
3753.76-162088448-162135712-162171200-162186736-162178832-162149296-162107648
3750.39-162062080-162023184-161993312-161972832-161953472-161927680-161888736
3747.01-161836832-161780096-161733008-161712736-161737424-161814112-161942016
3743.64-162103344-162273616-162422400-162523808-162560768-162529648-162440864
3740.26-162314976-162178784-162059056-161976560-161941424-161953360-162002608
3736.89-162071200-162140752-162195168-162224768-162227424-162208112-162176768
3733.51-162147536-162131264-162134976-162157984-162196816-162239872-162275088
3730.14-162290960-162281088-162247568-162196864-162142496-162101008-162084848
3726.76-162100960-162147280-162211824-162276576-162320448-162325952-162284320
3723.39-162197024-162077136-161945408-161824832-161735664-161691024-161691936
3720.01-161730944-161792032-161857952-161912992-161946992-161956496-161945200
3716.64-161917712-161881312-161839536-161792720-161739216-161676112-161604336
3713.26-161527440-161453680-161396592-161367168-161374720-161420448-161498400
3709.89-161592976-161686080-161757488-161791408-161780992-161728880-161645792
3706.51-161549216-161458832-161391440-161355488-161351232-161369184-161394304
3703.14-161406688-161391920-161338912-161248080-161124224-160984720-160845728
3699.76-160724880-160632768-160571504-160536144-160512464-160484112-160436128
3696.39-160356592-160242192-160096624-159933248-159765712-159610272-159478032
3693.01-159374112-159294064-159229664-159166912-159093728-158999696-158883168
3689.64-158747504-158601680-158457360-158325392-158211664-158117344-158034608
3686.26-157954736-157865744-157761056-157636736-157496928-157350144-157209760
3682.89-157084736-156981616-156896304-156819456-156734224-156621040-156464928
3679.51-156258208-156004880-155716800-155416736-155130400-154880192-154682208
3676.14-154540848-154448992-154388208-154336656-154271888-154177632-154045888
3672.77-153879296-153687648-153487584-153293152-153118016-152965280-152833856
3669.39-152714192-152594624-152462240-152309296-152132288-151934272-151723792
3666.02-151511936-151307504-151118304-150945968-150787488-150634944-150479840
3662.64-150315152-150135488-149940880-149737088-149530688-149330448-149142240
3659.27-148969648-148809808-148658240-148508352-148354800-148192672-148023440
3655.89-147848016-147671328-147494992-147321040-147144800-146961824-146764848
3652.52-146549664-146316464-146071088-145824016-145590368-145381312-145207648
3649.14-145068960-144959776-144865376-144767584-144650048-144500512-144315104
3645.77-144097824-143860096-143616096-143380976-143165744-142973952-142803360
3642.39-142645792-142491344-142329344-142153808-141962064-141758240-141548464
3639.02-141343616-141151776-140977088-140820064-140674000-140528384-140368336
3635.64-140179856-139953216-139683168-139373104-139034256-138684672-138343552
3632.27-138030864-137759600-137534832-137352208-137200960-137062784-136919824
3628.89-136757840-136571312-136361280-136137696-135914080-135703808-135513840
3625.52-135347120-135193744-135043280-134879040-134689424-134466592-134212688
3622.14-133935744-133651152-133373680-133117128-132889016-132692160-132520128
3618.77-132365560-132220392-132076528-131931232-131784496-131637560-131491592
3615.39-131344696-131191896-131024904-130834128-130613920-130361760-130083160
3612.02-129790704-129500392-129231600-128997200-128807800-128662752-128553848
3608.64-128465376-128380928-128283272-128162488-128014088-127842584-127657088
3605.27-127467528-127283592-127109736-126944168-126779736-126606744-126417576
3601.89-126205632-125974016-125730984-125491336-125269504-125079736-124929136
3598.52-124815072-124728240-124652984-124570072-124465168-124328944-124162472
3595.14-123974160-123779784-123594984-123433560-123299368-123188568-123087656
3591.77-122979240-122844952-122672432-122457936-122208720-121940360-121674792
3588.39-121431552-121226488-121065624-120945856-120853152-120772096-120685472
3585.02-120581960-120456280-120311608-120154872-119994576-119838376-119688824
3581.64-119542992-119395920-119238896-119067888-118880504-118682656-118483032
3578.27-118294432-118126528-117987064-117876440-117787544-117707952-117621544
3574.90-117512920-117368664-117182112-116954080-116690192-116402384-116103648
3571.52-115808952-115528128-115270080-115037456-114828824-114638416-114459384
3568.15-114283184-114102504-113911392-113708176-113492272-113266720-113035424
3564.77-112801400-112565816-112329168-112088256-111840848-111583424-111314920
3561.40-111036096-110751400-110465024-110182200-109906088-109634600-109362688
3558.02-109082536-108783592-108458808-108105168-107725008-107327136-106924800
3554.65-106530864-106156688-105807088-105480248-105167064-104854424-104529504
3551.27-104183856-103814448-103428096-103035504-102653048-102292712-101962728
3547.90-101661720-101381152-101103928-100812440-100490280-100128800-99728864
3544.52-99301552-98866488-98445168-98058880-97723064-97441440-97211288
3541.15-97018264-96844096-96668280-96473480-96246920-95983992-95686032
3537.77-95360984-95019168-94671608-94327776-93994712-93675224-93370464
3534.40-93078328-92797576-92526816-92265576-92013832-91771976-91538576
3531.02-91311960-91089080-90865528-90637824-90404384-90167256-89930152
3527.65-89700032-89484352-89286496-89107616-88942256-88779920-88606056
3524.27-88407544-88174240-87903336-87600080-87277520-86952728-86643424
3520.90-86362648-86115008-85898008-85700856-85508856-85308624-85093072
3517.52-84862688-84624584-84393216-84181032-83998712-83846576-83716784
3514.15-83594232-83459528-83296632-83096008-82858152-82594936-82324904
3510.77-82069288-81844520-81659952-81511952-81386688-81262560-81115624
3507.40-80926864-80686840-80397224-80072800-79736792-79416336-79134336
3504.02-78909048-78743184-78629008-78546800-78470456-78372320-78230600
3500.65-78031416-77774288-77469736-77137624-76800048-76480016-76192056
3497.27-75942720-75728136-75536272-75351736-75161416-74955464-74733192
3493.90-74499560-74264784-74036880-73822512-73617824-73414104-73196736
3490.52-72951192-72668288-72348096-72000816-71647216-71310544-71013160
3487.15-70769920-70583816-70444968-70333512-70224136-70094080-69925016
3483.78-69709392-69447168-69146960-68820488-68476472-68122480-67763160
3480.40-67399136-67034012-66672652-66325188-66004200-65721364-65484116
3477.03-65291504-65131184-64983724-64822068-64621036-64359968-64033140
3473.65-63645332-63218028-62778980-62360224-61986536-61674436-61423452
3470.28-61220176-61038140-60845448-60612652-60317356-59951776-59524552
3466.90-59058324-58585896-58142348-57758996-57453448-57227736-57066784
3463.53-56941968-56816680-56657584-56439948-56155004-55809456-55425208
3460.15-55030268-54650924-54307036-54003068-53730272-53469992-53200400
3456.78-52903780-52572676-52213556-51842312-51481780-51149816-50857092
3453.40-50600792-50363828-50120796-49845744-49518756-49133516-48698276
3450.03-48237912-47782280-47362612-47001516-46709560-46479288-46293196
3446.65-46124240-45945212-45735080-45483912-45191068-44867892-44530536
3443.28-44197716-43881912-43591124-43324552-43076052-42833296-42585892
3439.90-42322368-42037580-41729072-41400332-41057584-40707656-40356280
3436.53-40008936-39666420-39329788-38997472-38669424-38346760-38033488
3433.15-37734936-37456108-37201432-36968712-36751596-36538144-36311600
3429.78-36055640-35755616-35404620-35005316-34570208-34118212-33672872
3426.40-33256266-32884064-32561774-32284184-32036922-31800882-31554144
3423.03-31279590-30967696-30618198-30237940-29838696-29434922-29037724
3419.65-28654442-28287106-27932872-27586966-27245196-26906834-26573290
3416.28-26249584-25939686-25645288-25361524-25077890-24777964-24442470
3412.90-24054630-23605608-23094998-22536366-21950260-21363700-20802134
3409.53-20284146-19816342-19396608-19010292-18642486-18278448-17911812
3406.15-17544946-17188580-16855440-16555087-16285120-16032312-15766394
3402.78-15453766-15058504-14557862-13947061-13244697-12488919-11732575
3399.40-11029750-10424812-9942613-9583730-9325884-9127967-8940728-8718773
3395.55-8426424-8047230-7579225-7037193-6441679-5816202-5179591-4543676
3391.69-3914365-3292027-2677174-2069829-1476085-903105-358152+151318+625631
3387.35+1070552+1499335+1929167+2380205+2867463+3402954+3988924+4620482+5285075
3383.01+5968470+6655421+7333973+7997359+8646024+9284431+9920688+10563546
3379.16+11220331+11894017+12584053+13284307+13987297+14682238+15361278+16016237
3375.30+16645668+17250172+17836988+18416380+19001874+19606388+20243450+20920446
3371.44+21640414+22399266+23187326+23991602+24797672+25592032+26367060+27119236
3367.59+27850930+28568228+29277214+29982016+30684058+31379228+32063370+32730418
3363.73+33379232+34012428+34639816+35272924+35925304+36605172+37315076+38048296
3359.87+38793648+39535380+40260340+40963436+41646688+42321456+43004188+43709904
3356.01+44447252+45213960+45996456+46772580+47517272+48211512+48847396+49432088
3352.16+49986136+50540560+51126592+51766988+52472396+53235048+54033960+54839920
3348.30+55622916+56361692+57047404+57686352+58297108+58902044+59522424+60171552
3344.44+60851964+61555064+62266244+62970304+63656856+64323452+64977604+65632248
3340.59+66301292+66994144+67712456+68446744+69181440+69895824+70571448+71198224
3336.73+71776384+72316552+72838416+73365024+73918912+74515088+75161040+75852784
3332.87+76579128+77323008+78066712+78793928+79494248+80162384+80800576+81413760
3329.02+82012744+82609072+83211816+83829336+84464432+85115080+85775160+86435048
3325.16+87084576+87714072+88318784+88897848+89458136+90008648+90561344+91126168
3321.30+91709760+92313048+92931640+93557016+94180520+94794992+95397344+95990032
3317.45+96578568+97171048+97773456+98388552+99014904+99646144+100273432
3314.07+100889168+101488416+102070480+102639872+103204608+103772472+104349544
3310.70+104939384+105540080+106145992+106749976+107345848+107930304+108504736
3307.32+109074392+109647048+110230768+110831200+111450600+112085808+112728576
3303.95+113370128+113997992+114605144+115186752+115744240+116284048+116815912
3300.57+117350168+117898560+118467144+119058512+119669040+120291704+120916328
3297.20+121532712+122133728+122713928+123272624+123813704+124342672+124865312
3293.82+125388864+125915488+126448952+126989848+127541024+128104424+128682600
3290.45+129278432+129893680+130526248+131169344+131815504+132451784+133068920
3287.07+133659912+134223936+134766912+135299072+135834320+136383936+136956256
3283.70+137550640+138160960+138775312+139381088+139965888+140524944+141059632
3280.32+141576048+142085952+142601072+143129936+143677280+144242224+144820928
3276.95+145407360+145996880+146584656+147172224+147758576+148345888+148931392
3273.57+149511072+150078464+150625696+151146784+151638368+152102400+152543936
3270.20+152972928+153398784+153830832+154275952+154737264+155217056+155715072
3266.82+156232080+156769184+157328176+157910224+158514944+159139248+159777056
3263.45+160419072+161056336+161678560+162279664+162855600+163407824+163939440
3260.07+164453616+164955776+165449056+165933856+166411936+166884000+167353552
3256.70+167824176+168301856+168791008+169295360+169813904+170342736+170874272
3253.32+171398800+171906384+172393184+172858496+173305552+173746480+174192048
3249.95+174653696+175139600+175652288+176187504+176735552+177285152+177822288
3246.57+178339648+178831168+179298912+179749536+180193376+180639552+181095840
3243.20+181563568+182039536+182515088+182978032+183419792+183835232+184224400
3239.82+184598448+184973024+185365056+185791152+186259264+186768064+187303328
3236.45+187844784+188366272+188844656+189265360+189627104+189943168+190238288
3233.07+190542720+190886224+191289296+191756944+192279360+192833232+193385488
3229.70+193906736+194372432+194773216+195116320+195421872+195718672+196037312
3226.32+196399568+196817472+197285424+197786528+198294640+198781744+199226368
3222.95+199617056+199956320+200257632+200543856+200840016+201165408+201531376
3219.58+201937568+202372384+202817408+203252288+203659808+204029568+204361792
3216.20+204664352+204951744+205240864+205545808+205874960+206231504+206610208
3212.83+207004640+207404368+207801280+208190768+208569104+208935392+209289616
3209.45+209628784+209950864+210250256+210525824+210777248+211010768+211236032
3206.08+211466992+211717616+211998544+212313952+212659760+213023840+213390480
3202.70+213742512+214068592+214364512+214636816+214899744+215173264+215474032
3199.33+215814352+216193392+216599264+217009184+217396416+217734976+218008752
3195.95+218214448+218364352+218482528+218602160+218755152+218964656+219241104
3192.58+219578688+219958288+220352816+220732864+221077888+221377856+221636480
3189.20+221869360+222099584+222347888+222627984+222944496+223286832+223637456
3185.83+223974816+224277920+224538224+224754016+224936368+225102272+225269952
3182.45+225454592+225662560+225891392+226131696+226371728+226599520+226811184
3179.08+227008336+227200688+227399824+227618080+227861600+228128336+228409296
3175.70+228687696+228947168+229172448+229356000+229499344+229612800+229711760
3172.33+229816144+229943168+230103808+230301872+230533824+230786560+231045568
3168.95+231295184+231523184+231722816+231894224+232044032+232183120+232324576
3165.58+232477984+232651584+232846032+233056800+233274912+233487744+233684256
3162.20+233855248+233997216+234112016+234207136+234292304+234380560+234481472
3158.83+234602880+234747120+234913360+235096192+235287232+235478544+235661520
3155.45+235829424+235978512+236106336+236215344+236307872+236389376+236467024
3152.08+236548496+236641904+236754240+236890848+237054880+237245456+237459344
3148.70+237688704+237924128+238152944+238363824+238546208+238693680+238804896
3145.33+238886016+238946848+239002448+239068544+239160240+239284176+239442208
3141.95+239625360+239819184+240004048+240162976+240284096+240364736+240411936
3138.58+240442656+240477408+240537792+240638864+240786768+240976976+241197088
3135.20+241427760+241650640+241851376+242023184+242168368+242294720+242412896
3131.83+242533200+242661792+242799152+242940752+243080240+243210880+243331536
3128.46+243446000+243561504+243689568+243841424+244022448+244232688+244464960
3125.08+244703984+244933584+245137792+245305296+245435072+245532576+245612368
3121.71+245692720+245792448+245924576+246095344+246301232+246531552+246769392
3118.33+246997888+247203968+247383536+247537680+247679904+247826752+247996480
3114.96+248202704+248451952+248741408+249057872+249383584+249697760+249982976
3111.58+250228960+250433344+250604784+250756336+250905360+251065136+251245024
3108.21+251445472+251662112+251884736+252104592+252316080+252518720+252718112
3104.83+252924768+253148672+253395568+253664736+253946224+254223600+254477184
3101.46+254688464+254847600+254954304+255022192+255073024+255133024+255226032
3098.08+255368512+255562448+255798944+256057872+256315504+256549792+256747792
3094.71+256907936+257039968+257160944+257289360+257439360+257616976+257816320
3091.33+258024176+258223104+258399024+258545024+258663440+258765504+258868240
3087.96+258986480+259128464+259292688+259467824+259633280+259769424+259861056
3084.58+259903872+259906272+259888128+259874512+259889264+259948464+260054672
3081.21+260196320+260351680+260491536+260591312+260633008+260614160+260545520
3077.83+260449280+260354080+260286672+260267264+260304576+260394032+260521024
3074.46+260663552+260799296+260908432+260980384+261012688+261013008+260993328
3071.08+260969312+260952896+260950560+260962112+260980608+260994288+260992400
3067.71+260965328+260912304+260839040+260759088+260688784+260644720+260637328
3064.33+260668688+260731824+260811344+260887264+260942464+260965872+260957792
3060.96+260928128+260895984+260882240+260904400+260969856+261073136+261196320
3057.58+261314112+261401120+261438304+261419584+261356288+261272112+261198224
3054.21+261165808+261195712+261293856+261450816+261640960+261833568+262000576
3050.83+262122848+262197472+262237984+262268096+262316544+262406672+262550736
3047.46+262743888+262968832+263196992+263400144+263557024+263659936+263716976
3044.08+263750144+263788688+263862480+263993696+264191632+264451104+264756544
3040.71+265085168+265415280+265730800+266025568+266303408+266575456+266854496
3037.34+267153200+267475552+267819664+268176896+268534688+268882560+269215488
3033.96+269536160+269855904+270192576+270566144+270993792+271486720+272045792
3030.59+272662624+273320160+273997952+274675040+275336640+275975872+276592992
3027.21+277198560+277806656+278432032+279087200+279778688+280506080+281262720
3023.84+282041088+282832704+283634944+284451040+285291648+286169824+287101600
3020.46+288097600+289159808+290282016+291447936+292635360+293822048+294990464
3017.09+296132896+297253504+298366624+299492896+300654656+301868160+303139648
3013.71+304465280+305830400+307216416+308606016+309988576+311364192+312744352
3010.34+314148416+315598688+317112992+318698464+320351360+322054112+323780576
3006.96+325502144+327194400+328841856+330442240+332005952+333549792+335095424
3003.59+336660672+338253504+339872960+341506624+343135904+344738592+346297824
3000.21+347803264+349255296+350661920+352038144+353400576+354760512+356121728
2996.84+357478080+358812608+360103808+361326848+362461152+363494240+364423328
2993.46+365253024+365996448+366666016+367271424+367814304+368288832+368681824
2990.09+368977984+369165408+369238240+369200704+369066624+368854912+368583872
2986.71+368267744+367910048+367503712+367033632+366480960+365831840+365081440
2983.34+364237664+363321920+362363040+361392640+360435520+359503264+358594720
2979.96+357693984+356779136+355828096+354827616+353777312+352691872+351597408
2976.59+350526112+349504320+348549696+347661888+346825184+346010720+345184672
2973.21+344316224+343386496+342391936+341344672+340269088+339194304+338146048
2969.84+337138944+336174624+335240928+334317120+333381056+332415648+331415520
2966.46+330389504+329357728+328346080+327381696+326482784+325656832+324896960
2963.09+324188096+323507936+322838304+322167456+321495840+320833504+320200160
2959.71+319615392+319096384+318652128+318281312+317974080+317716416+317494400
2956.34+317300032+317133408+317002368+316921152+316905024+316964544+317102848
2952.96+317312160+317575872+317871264+318173888+318464224+318730688+318971424
2949.59+319195008+319415040+319646432+319900768+320180608+320478400+320775488
2946.22+321047648+321268896+321417600+321481472+321459552+321364448+321214848
2942.84+321032960+320836448+320634080+320421088+320182784+319895040+319533472
2939.47+319079392+318525760+317878720+317158528+316392544+315608288+314827744
2936.09+314060192+313302080+312538560+311749248+310916096+310028672+309087616
2932.72+308106336+307104960+306104416+305120416+304157888+303208448+302253216
2929.34+301269120+300233856+299134368+297971008+296756256+295514272+294273952
2925.97+293059776+291888768+290765120+289679904+288615328+287549792+286463424
2922.59+285344576+284191392+283012352+281822784+280640608+279479232+278347008
2919.22+277242144+276154272+275069984+273975264+272861248+271727712+270582752
2915.84+269441888+268323760+267244112+266211168+265225008+264274208+263342800
2912.47+262411152+261465840+260501776+259525888+258555136+257613280+256723520
2909.09+255903584+255158144+254479520+253847600+253236592+252621232+251984816
2905.72+251323584+250648368+249982112+249352768+248786976+248300928+247897056
2902.34+247564128+247278640+247013472+246744080+246455184+246144384+245822544
2898.97+245508144+245223936+244987104+244806512+244679152+244592560+244527680
2895.59+244466672+244396128+244313504+244224640+244143936+244088592+244073232
2892.22+244103648+244176816+244277552+244384416+244473616+244524336+244523440
2888.84+244467888+244363776+244223952+244062096+243887344+243699856+243490064
2885.47+243236240+242911696+242487904+241942320+241262768+240450400+239519456
2882.09+238495440+237407488+236282800+235142448+233996384+232843536+231675024
2878.72+230478672+229243888+227967360+226655712+225323856+223993856+222688592
2875.34+221427120+220220624+219070608+217970336+216907792+215871936+214855952
2871.97+213861024+212895408+211972224+211105040+210299904+209554688+208854912
2868.59+208176800+207492032+206774848+206008432+205190304+204333264+203461376
2865.22+202604080+201788944+201031664+200334320+199681088+199044864+198392464
2861.84+197694352+196931568+196101600+195218160+194307072+193399888+192523568
2858.47+191694992+190915312+190170960+189438384+188691264+187908160+187080912
2855.10+186216304+185334704+184465552+183639280+182878736+182193168+181575680
2851.72+181004560+180450848+179883600+179279680+178629024+177936416+177219600
2848.35+176503648+175812464+175162576+174557120+173985904+173427776+172857680
2844.97+172253968+171604352+170910192+170186816+169458656+168752912+168091648
2841.60+167486496+166934560+166419504+165916592+165399328+164846896+164249360
2838.22+163611744+162950096+162288560+161651632+161056000+160506960+159996320
2834.85+159505632+159009936+158487456+157923920+157317760+156680944+156035184
2831.47+155406192+154816432+154279232+153795120+153353088+152932304+152509200
2828.10+152063648+151583264+151066896+150523280+149967472+149415840+148880880
2824.72+148368224+147875104+147391872+146906528+146408624+145893824+145365136
2821.35+144833184+144312160+143816672+143355856+142930880+142534144+142150272
2817.97+141760304+141346944+140899264+140416144+139905376+139383568+138870384
2814.60+138383264+137933552+137523104+137144448+136782592+136420064+136042928
2811.22+135642880+135221088+134787952+134358368+133948976+133570992+133228144
2807.85+132914168+132614384+132309896+131982576+131621312+131223696+130799272
2804.47+130365176+129942944+129551440+129202552+128896040+128620856+128357344
2801.10+128082632+127776704+127428576+127037824+126616848+126185544+125766680
2797.72+125380080+125036000+124733944+124462624+124203344+123934880+123640352
2794.35+123311016+122948696+122565120+122177168+121803592+121458048+121146392
2790.97+120864552+120599984+120335792+120055032+119745576+119404200+119036672
2787.60+118656440+118281592+117929256+117610968+117330008+117080232+116847608
2784.22+116614152+116362800+116082352+115770304+115433480+115087440+114751312
2780.85+114443240+114175648+113951616+113764688+113600392+113440000+113266504
2777.47+113068504+112843664+112599592+112350288+112112776+111901584+111723640
2774.10+111577208+111451616+111330616+111197008+111039048+110853424+110645936
2770.72+110431864+110229888+110057208+109923928+109829216+109761928+109702400
2767.35+109628248+109520144+109367264+109170920+108943440+108705408+108479792
2763.98+108285888+108133720+108022352+107939712+107866376+107781752+107668984
2760.60+107520152+107338288+107135736+106930112+106740032+106578112+106448008
2757.23+106343416+106250168+106149760+106026160+105870048+105682456+105473688
2753.85+105262368+105067816+104905840+104782464+104691512+104616824+104534576
2750.48+104421016+104258856+104041792+103777400+103485016+103190264+102918464
2747.10+102687528+102502400+102354920+102225336+102088248+101920368+101706704
2743.73+101444688+101144488+100826752+100514824+100228584+99978712+99763432
2740.35+99569568+99376776+99163872+98915160+98625504+98301776+97961480+97626832
2736.49+97319216+97053208+96831664+96646056+96479280+96309200+96116016+95888280
2732.64+95624408+95333672+95033200+94742920+94478656+94249248+94052888+93877976
2728.78+93707144+93521752+93308040+93060976+92786248+92498512+92217344+91962312
2724.92+91745824+91571808+91432440+91311248+91187760+91043144+90865488+90653616
2721.07+90417408+90173808+89943672+89744224+89584160+89461400+89363216+89270168
2717.21+89161640+89020864+88841904+88629256+88397688+88167768+87960184+87789144
2713.35+87660392+87566528+87492856+87419064+87326776+87203640+87047512+86866720
2709.50+86677312+86499040+86348760+86236680+86162440+86117008+86083472+86043672
2705.64+85982128+85891696+85774720+85642920+85513536+85404808+85330312+85295328
2701.78+85294408+85314008+85334920+85338192+85310616+85248824+85158952+85057232
2697.93+84963472+84896384+84867848+84880056+84923296+84980320+85030768+85056552
2694.07+85047856+85006952+84946408+84886680+84850120+84854192+84905720+85000000
2690.21+85119488+85240704+85338648+85395712+85404808+85373752+85321296+85273448
2686.35+85255176+85284488+85366824+85493112+85642960+85789696+85907968+85979984
2682.50+86001928+85982696+85943184+85909712+85906352+85949784+86043512+86178360
2678.64+86334904+86490080+86622432+86719552+86780680+86815912+86844256+86886784
2674.78+86960064+87071880+87218608+87385296+87552080+87697904+87807880+87877688
2670.93+87914976+87937200+87966928+88024856+88124360+88267088+88442896+88632624
2667.07+88812984+88964536+89076696+89150528+89200232+89247136+89314712+89421160
2663.21+89573816+89766640+89982032+90194640+90379264+90517248+90602320+90642344
2659.36+90656872+90672424+90714496+90801400+90938240+91117024+91317872+91516048
2655.50+91688664+91820528+91909144+91964928+92007960+92062528+92149832+92282152
2651.64+92459704+92670472+92893656+93105936+93287256+93425960+93522152+93586088
2647.78+93635104+93687696+93758616+93854464+93971128+94096328+94213736+94307400
2643.93+94368672+94397328+94403784+94405464+94422792+94471672+94560120+94684528
2640.07+94829840+94974160+95094096+95170544+95195376+95172928+95119680+95059064
2636.21+95015728+95007792+95042208+95112600+95200600+95282160+95333632+95339056
2632.36+95295328+95212208+95111288+95017456+94953488+94932064+94952256+94999400
2628.50+95049440+95075640+95056512+94982464+94858120+94702736+94542912+94406368
2624.64+94313720+94271952+94273472+94296272+94312160+94294008+94222768+94093744
2620.79+93918072+93719080+93525312+93363752+93250736+93187984+93162240+93149248
2616.93+93120768+93052744+92932696+92763152+92560904+92352712+92166440+92024112
2613.07+91934424+91890248+91870376+91845720+91787608+91675920+91505184+91287392
2609.22+91047384+90817488+90627616+90496552+90427080+90404728+90401792+90384784
2605.36+90323672+90200640+90015088+89782288+89531000+89293056+89095704+88953472
2601.50+88864240+88810456+88764536+88696680+88583504+88415168+88197464+87950032
2597.64+87700464+87475800+87294960+87163560+87071192+86996240+86910680+86789272
2593.79+86615792+86388424+86119712+85832320+85553264+85305648+85102552+84943056
2589.93+84813464+84690848+84550776+84373904+84151840+83889208+83602688+83315424
2586.07+83050616+82824064+82639552+82487680+82348168+82195576+82006424+81766328
2582.22+81473616+81139848+80787584+80442976+80129032+79859336+79634168+79441320
2578.36+79258464+79061256+78829640+78552496+78232376+77883168+77526056+77183880
2574.50+76873472+76601080+76361072+76136768+75906344+75648560+75349704+75007240
2570.65+74631032+74240776+73860176+73510704+73204680+72942864+72712816+72493664
2566.79+72261024+71994400+71682896+71327920+70943368+70550976+70174144+69831664
2562.93+69531344+69268360+69026728+68783312+68515200+68206048+67851048+67458528
2559.08+67047732+66642936+66266332+65932032+65641756+65383516+65136492+64876324
2555.22+64582084+64244092+63865248+63461668+63057512+62678064+62342220+62056868
2551.36+61814420+61595416+61373000+61121328+60822876+60473400+60082644+59672756
2547.50+59271700+58904788+58588524+58325648+58104968+57904284+57697424+57461208
2543.65+57181956+56859104+56505052+56140676+55789896+55471812+55195960+54958716
2539.79+54745444+54534472+54303284+54035612+53725372+53379904+53016660+52659328
2535.93+52330436+52045244+51806976+51606148+51422524+51230488+51006664+50735760
2532.08+50415948+50058944+49687204+49327828+49005356+48734504+48516188+48337252
2528.22+48173248+47995436+47778536+47507908+47182796+46817456+46435764+46066044
2524.36+45731336+45444728+45204436+44995588+44793644+44572220+44311516+44002192
2520.51+43649860+43272068+42893392+42538008+42222812+41951280+41713360+41487772
2516.65+41248392+40971684+40643616+40264156+39847224+39417044+39001312+38623588
2512.79+38296456+38017856+37772576+37535000+37277144+36976492+36621472+36214664
2508.94+35771980+35318044+34879260+34476148+34118484+33802228+33511164+33222206
2505.08+32910794+32559368+32160986+31721716+31258620+30794376+30351526+29944666
2501.22+29577544+29241562+28918664+28585372+28221630+27815474+27366514+26886232
2497.36+26395770+25917818+25472058+25068094+24703060+24362604+24024494+23665864
2493.51+23269104+22827900+22348882+21849678+21353982+20884248+20455548+20070650
2489.65+19718658+19379094+19027010+18640308+18207040+17728824+17219782+16704233
2485.79+16208334+15753475+15349469+14991545+14662449+14335936+13985220+13590480
2481.94+13143546+12651110+12133101+11615725+11125569+10681362+10289017+9941065
2478.08+9617348+9292424+8942649+8551819+8116718+7646974+7162669+6688525+6245897
2473.74+5847818+5494301+5173099+4863142+4540100+4184307+3785406+3346264+2881448
2469.40+2413383+1965723+1557004+1194221+871791+572463+272833-50558-413781
2465.06-820497-1261266-1715160-2156372-2561047-2914996-3216849-3479966-3727469
2460.72-3987717-4284299-4630757-5025825-5454578-5891672-6309968-6686691
2456.87-7011488-7288104-7534558-7776354-8040676-8347143-8702374-9099048
2453.01-9516028-9926248-10303406-10629640-10900987-11128430-11334660-11547537
2449.15-11792894-12086310-12429493-12809698-13203332-13583377-13926437
2445.78-14220837-14468285-14685211-14896671-15130000-15406698-15736167
2442.40-16112807-16517353-16923320-17303068-17636428-17916154-18149844
2439.03-18357686-18565794-18800580-19078870-19404592-19767932-20147872
2435.65-20518382-20857748-21152872-21404764-21627432-21844422-22081132
2432.28-22357602-22683460-23052774-23448064-23843490-24212882-24536706
2428.90-24808666-25035942-25238482-25442622-25674070-25950790-26278138
2425.53-26647072-27038210-27426150-27787092-28106348-28381058-28621476
2422.15-28847612-29083112-29348584-29655758-30003038-30378334-30760490
2418.78-31126748-31458908-31748550-32000040-32228054-32454790-32702406
2415.40-32986674-33313488-33676308-34058500-34438400-34795116-35115524
2412.03-35396848-35647832-35886208-36133040-36406516-36716912-37063056
2408.66-37432884-37806932-38163772-38486208-38766640-39008272-39224880
2405.28-39437156-39665636-39925972-40223936-40554248-40901792-41246584
2401.91-41568832-41855480-42103128-42319768-42521500-42728756-42959660
2398.53-43225164-43526004-43852188-44185916-44507268-44799408-45053788
2395.16-45272448-45467796-45658228-45863600-46098444-46368348-46668480
2391.78-46984216-47296808-47587832-47845900-48069452-48267864-48458288
2388.41-48660880-48892936-49162780-49467340-49792744-50118164-50421328
2385.03-50685212-50903260-51081228-51236588-51392740-51573184-51794940
2381.66-52063320-52370792-52698360-53020964-53315160-53564404-53764600
2378.28-53924932-54065188-54210004-54382128-54596764-54856104-55149956
2374.91-55457976-55756548-56024016-56248156-56428264-56576244-56712376
2371.53-56859648-57037600-57256152-57513872-57798160-58088704-58364924
2368.16-58609812-58816588-58989328-59141848-59293376-59462504-59662088
2364.78-59894824-60153340-60421716-60680064-60911640-61105880-61263396
2361.41-61394480-61516904-61651016-61813672-62013716-62249420-62509984
2358.03-62777220-63031772-63257772-63447852-63604420-63738996-63868840
2354.66-64011508-64180400-64380712-64607820-64849368-65088252-65307648
2351.28-65496436-65652088-65781940-65900708-66026944-66177464-66362348
2347.91-66582204-66827056-67080044-67320952-67531912-67703656-67836672
2344.53-67942320-68039352-68148256-68286272-68461600-68671336-68902448
2341.16-69135088-69348688-69528232-69668040-69775152-69865984-69962200
2337.78-70085584-70250192-70458736-70702416-70961296-71211952-71432096
2334.41-71607976-71737568-71831128-71908400-71992840-72104848-72256840
2331.03-72449152-72670264-72901168-73119936-73309136-73459704-73574024
2327.66-73665136-73752648-73856368-73992128-74165328-74370448-74592488
2324.28-74811368-75007096-75165968-75284448-75369264-75437216-75508608
2320.91-75602792-75732376-75899960-76097656-76309528-76515496-76698752
2317.53-76848944-76965552-77058216-77144064-77241360-77365616-77523848
2314.16-77712728-77919432-78124832-78308624-78455960-78561056-78629312
2310.79-78676224-78723248-78791608-78897072-79045232-79230632-79437352
2307.41-79644232-79830608-79982256-80094640-80174864-80238296-80305384
2304.04-80394288-80516232-80672640-80853752-81042168-81218536-81365752
2300.66-81475136-81549200-81600136-81646928-81709840-81804800-81938368
2297.29-82106256-82294216-82482288-82650272-82783584-82876976-82936600
2293.91-82977152-83019040-83081080-83176184-83307680-83468136-83641952
2290.54-83810208-83955624-84068096-84147344-84202968-84251608-84311576
2287.16-84397760-84517000-84665624-84830368-84992712-85133176-85237752
2283.79-85302392-85333776-85347984-85366616-85410016-85492232-85616504
2280.41-85774336-85948080-86114880-86254168-86352808-86408464-86430976
2277.04-86438752-86454320-86497720-86580688-86704184-86857440-87021696
2273.66-87175600-87300600-87387128-87436416-87460216-87477504-87508776
2270.29-87569728-87667848-87799120-87949752-88100272-88230920-88327408
2266.91-88384384-88407600-88412352-88418360-88444344-88503352-88598352
2263.54-88721728-88857936-88987800-89093616-89165224-89202224-89214656
2260.16-89219288-89235680-89280072-89360120-89473904-89608624-89745888
2256.79-89865776-89952760-90000336-90012936-90004712-89995592-90005496
2253.41-90049592-90133736-90252288-90391072-90529952-90649448-90735544
2250.04-90783464-90798808-90795864-90792992-90808504-90854088-90932800
2246.66-91038368-91156320-91269400-91361688-91423992-91455344-91464320
2243.29-91465640-91476648-91511288-91576688-91670832-91782792-91896240
2239.91-91993392-92061240-92093936-92095848-92079824-92063872-92066016
2236.54-92099256-92167392-92264920-92377368-92485664-92572400-92625064
2233.16-92641368-92628352-92601536-92579024-92578128-92608592-92671352
2229.79-92757384-92851352-92935336-92994728-93022184-93020024-92999208
2226.41-92976112-92967864-92987208-93038824-93117952-93211504-93302112
2223.04-93372856-93412040-93417104-93393904-93356752-93322936-93309040
2219.67-93324848-93372440-93443536-93523856-93595872-93644216-93660320
2216.29-93643984-93604640-93558008-93521824-93511096-93533568-93588240
2212.92-93664552-93745856-93813800-93853312-93857064-93827272-93774592
2209.54-93715992-93669856-93650248-93663896-93708128-93771184-93837400
2206.17-93889368-93915224-93910696-93880248-93836864-93796928-93775960
2202.79-93783824-93821728-93881744-93948720-94004664-94033968-94027832
2199.42-93986960-93921848-93849432-93789128-93757008-93761472-93800984
2196.04-93864400-93933872-93990360-94018480-94011152-93971656-93912488
2192.67-93851824-93808672-93797112-93822560-93879600-93954080-94026704
2189.29-94078536-94096344-94076448-94026112-93961344-93901760-93866608
2185.92-93867560-93906464-93974448-94054456-94125944-94171216-94180328
2182.54-94154248-94104328-94049456-94010624-94004664-94039152-94110936
2179.17-94205760-94303072-94381784-94425784-94428992-94397560-94347312
2175.79-94300152-94276800-94291872-94348440-94438160-94542760-94639656
2172.42-94708152-94735992-94722672-94679696-94627808-94590856-94589184
2169.04-94633464-94721776-94839400-94963672-95069360-95136376-95154448
2165.67-95127696-95071440-95009584-94966520-94961352-95002040-95083272
2162.29-95187928-95293280-95376016-95420360-95422080-95389864-95342376
2158.92-95303264-95294048-95327576-95404256-95511760-95629000-95730824
2155.54-95797000-95816528-95791640-95737480-95676472-95633808-95628752
2152.17-95670168-95753568-95862440-95973200-96061840-96110640-96113600
2148.79-96077448-96019984-95965240-95935672-95946232-95999920-96086888
2145.42-96187272-96276720-96333392-96344432-96309888-96242168-96162992
2142.04-96097168-96065576-96079296-96136168-96222232-96314928-96390056
2138.67-96428744-96422808-96376768-96307392-96237720-96191136-96184128
2135.29-96221400-96294464-96383528-96463624-96511152-96511272-96461848
2131.92-96374800-96272624-96182344-96128328-96124592-96171720-96256120
2128.55-96353736-96436928-96482024-96476024-96420496-96330544-96230656
2125.17-96148040-96104224-96109272-96158720-96234936-96312560-96365024
2121.80-96373440-96331488-96247576-96142576-96043136-95975152-95955496
2118.42-95986792-96056728-96141800-96213624-96247632-96229112-96158960
2115.05-96052096-95934000-95833280-95772464-95762840-95799664-95864464
2111.67-95930200-95968800-95959592-95895584-95785112-95650384-95520264
2108.30-95422856-95377032-95387312-95441936-95516752-95582056-95610336
2104.92-95584736-95503496-95380720-95241264-95115088-95027488-94992400
2101.55-95008576-95059424-95118480-95156296-95149696-95087616-94975088
2098.17-94831072-94683984-94562632-94488880-94470664-94500376-94556560
2094.80-94610192-94632872-94605192-94521920-94393688-94243816-94101880
2091.42-93994832-93939536-93937992-93976592-94030152-94069232-94068472
2088.05-94014312-93908200-93767024-93617520-93489032-93404648-93374584
2084.67-93393376-93440848-93488072-93505776-93472872-93382456-93244072
2081.30-93080952-92923704-92801688-92734096-92724792-92760912-92816552
2077.92-92859952-92862512-92806944-92692608-92535424-92362968-92207968
2074.55-92097288-92045696-92050600-92093512-92144800-92172648-92151672
2071.17-92070328-91934624-91765152-91592056-91446016-91348824-91307824
2067.80-91313512-91342120-91362944-91347264-91276768-91148896-90977776
2064.42-90790352-90618824-90490512-90421224-90409600-90437832-90476608
2061.05-90493456-90461744-90368536-90218280-90031048-89837400-89669240
2057.67-89551176-89492752-89486640-89510104-89532088-89522048-89458536
2054.30-89335680-89164680-88970560-88785336-88638040-88546824-88513688
2050.92-88523368-88548088-88555056-88516032-88415656-88255280-88053280
2047.55-87839576-87647488-87504072-87422976-87400440-87416296-87440024
2044.17-87439552-87389712-87279984-87116528-86920824-86723248-86553960
2040.80-86434592-86372480-86358240-86368752-86373872-86345872-86266728
2037.43-86133424-85959376-85769808-85594928-85461224-85382816-85358136
2034.05-85369512-85388552-85383904-85330032-85215312-85045288-84840416
2030.68-84632392-84453352-84327384-84264088-84255304-84277232-84297408
2027.30-84283832-84214416-84083000-83901128-83695432-83498888-83342440
2023.93-83245544-83210280-83221208-83249368-83260656-83226184-83129448
2020.55-82972416-82773568-82564672-82379600-82246072-82177688-82169304
2017.18-82199208-82235312-82243760-82199392-82091848-81929848-81736848
2013.80-81545304-81387056-81283744-81241552-81247760-81276080-81292880
2010.43-81267672-81181576-81032728-80837304-80625040-80430328-80283248
2007.05-80200728-80181144-80205600-80242808-80257752-80222376-80122704
2003.68-79963336-79765720-79562848-79388672-79269000-79213832-79215232
2000.30-79248288-79279808-79276696-79216456-79093328-78919808-78723304
1996.93-78538120-78395264-78313456-78294128-78319520-78360024-78379848
1993.55-78350112-78255880-78100408-77905528-77704400-77532856-77418448
1990.18-77372600-77388168-77439712-77492048-77509816-77467352-77356360
1986.80-77187720-76988856-76795632-76642296-76551224-76527344-76555824
1983.43-76606888-76644568-76636032-76562208-76422560-76235104-76031616
1980.05-75848464-75715960-75649696-75646072-75683512-75727944-75742704
1976.68-75699424-75585272-75407392-75190640-74970416-74783112-74655672
1973.30-74598152-74600744-74637072-74671184-74668720-74605112-74474184
1969.93-74288872-74077744-73876960-73719840-73627008-73601416-73626456
1966.55-73671112-73698864-73677712-73589504-73435208-73234144-73018744
1963.18-72825072-72682680-72606368-72591664-72616688-72647952-72650672
1959.80-72598096-72479504-72303336-72093968-71885200-71710216-71591632
1956.43-71535360-71528984-71544768-71548608-71509672-71409128-71245640
1953.05-71036520-70811504-70605512-70447384-70352864-70318432-70324208
1949.68-70338224-70326504-70262232-70133360-69946744-69724728-69499840
1946.31-69305192-69163872-69084184-69056208-69055400-69049744-69008584
1942.93-68912584-68758048-68558736-68341488-68138608-67977816-67874424
1939.56-67827144-67818112-67817672-67793624-67719736-67583264-67389224
1936.18-67158320-66921468-66711416-66552172-66453956-66408808-66393388
1932.81-66376152-66325624-66219692-66052128-65833892-65590744-65355380
1929.43-65158848-65021156-64945288-64916988-64907908-64884120-64814868
1926.06-64682044-64484784-64240076-63977960-63733100-63534768-63399456
1922.68-63324824-63291424-63268008-63220036-63119756-62954764-62730464
1919.31-62469184-62204196-61969928-61791768-61679976-61625204-61602976
1915.93-61578804-61519612-61402668-61221188-60986964-60726476-60472684
1912.56-60256272-60096280-59994960-59937444-59895772-59837736-59735868
1909.18-59575920-59360756-59109536-58851756-58619436-58436964-58313832
1905.81-58242216-58198588-58150580-58065964-57922416-57713552-57450976
1902.43-57161508-56879580-56636884-56455068-56337484-56269760-56223124
1899.06-56162184-56055608-55884160-55647224-55361832-55058408-54772540
1895.68-54534324-54359944-54247300-54176208-54114356-54025964-53882764
1892.31-53670924-53396060-53080504-52757936-52463652-52224944-52052700
1888.93-51939864-51861836-51785332-51676736-51512532-51285096-51005200
1885.56-50699000-50399576-50138324-49935280-49793772-49699396-49623960
1882.18-49534376-49401128-49207600-48954312-48658432-48349592-48060112
1878.81-47816380-47630972-47498964-47398672-47299136-47167960-46981116
1875.43-46729320-46421008-46079696-45737084-45423656-45160244-44951392
1872.06-44784248-44632424-44463180-44246880-43966004-43619428-43223276
1868.68-42806708-42402524-42038556-41728616-41468300-41236548-41000528
1865.31-40724816-40381020-39955632-39453636-38896632-38317216-37749556
1861.93-37220140-36740560-36304568-35890288-35466500-35002748-34477636
1858.56-33885784-33240078-32568126-31905072-31284564-30729634-30246510
1855.19-29823476-29435654-29051234-28642320-28192400-27702380-27190518
1851.81-26687566-26228720-25843800-25548682-25341230-25200832-25094976
1848.44-24987694-24849424-24665328-24439652-24194696-23964608-23786344
1845.06-23689368-23687822-23777548-23936750-24132686-24332182-24510148
1841.69-24656742-24779640-24900098-25046800-25245178-25510186-25840052
1838.31-26216550-26608710-26981708-27305810-27565150-27760746-27910268
1834.94-28041886-28185336-28362936-28582578-28835228-29097418-29337808
1831.56-29526498-29643924-29686008-29666728-29612874-29556754-29527496
1828.19-29541394-29598180-29680556-29759864-29804132-29786918-29695514
1824.81-29534744-29324904-29097754-28886226-28715710-28596900-28522896
1821.44-28470736-28408842-28303764-28131412-27882260-27564750-27203004
1818.06-26830080-26479044-26173546-25921754-25713428-25523108-25316450
1814.69-25060602-24732376-24324936-23850002-23334364-22811746-22314652
1811.31-21863420-21461534-21093980-20731664-20339606-19886448-19354186
1807.94-18742266-18067188-17358064-16646725-15958137-15302534-14670888
1804.56-14037879-13367138-12622261-11775073-10814146-9746210-8594118-7388314
1800.71-6157882-4920287-3675072-2402693-1068287+369742+1950287+3700669+5630697
1796.37+7732460+9984490+12359855+14835024+17398154+20052306+22815538+25715208
1792.51+28779060+32027104+35462852+39071720+42822296+46672956+50580312+54508488
1788.65+58433836+62346072+66244488+70130328+73997208+77823512+81567480+85169256
1784.80+88556784+91656496+94405792+96763032+98713424+100270640+101470256
1781.42+102362168+102998976+103426488+103677336+103769264+103709552+103501152
1778.05+103151208+102677360+102109936+101490664+100864832+100273048+99741088
1774.67+99274592+98856792+98452536+98016928+97507704+96895624+96172248+95352392
1770.81+94470032+93569728+92695784+91882360+91146992+90490472+89901168+89363456
1766.96+88868112+88420576+88045616+87785256+87693160+87824360+88224944+88922832
1763.10+89923336+91210512+92753416+94516904+96473304+98611488+100941864
1759.73+103493432+106306576+109421744+112867576+116652160+120760328+125157616
1756.35+129799480+134643968+139663808+144853600+150230400+155828160+161685840
1752.98+167834704+174287200+181030416+188026176+195217776+202542064+209941168
1749.60+217374304+224822192+232286720+239784208+247333952+254948048+262621328
1746.23+270327104+278019136+285638592+293123392+300422368+307503008+314358496
1742.85+321003456+327469888+333792672+339998848+346097600+352075648+357901824
1739.48+363536512+368945600+374115296+379060096+383826112+388483872+393115296
1736.10+397797056+402587040+407511776+412567904+417726368+422949056+428205376
1732.73+433489600+438828224+444280096+449925472+455848928+462120992+468782176
1729.35+475835456+483248832+490965952+498928384+507092480+515446688+524016768
1725.98+532858976+542043968+551636480+561674432+572156224+583038720+594248064
1722.60+605699968+617321408+629071744+640950144+652993600+665262336+677817856
1719.23+690702208+703920256+717433536+731165952+745020672+758902080+772735552
1715.85+786482368+800143296+813751168+827355264+841001344+854714112+868483456
1712.48+882260800+895962624+909484800+922720000+935577408+947999168+959968576
1709.10+971506176+982657728+993471232+1003971840+1014137792+1023890304
1706.21+1033096256+1041587968+1049196672+1055788480+1061290432+1065702784
1703.32+1069081984+1071511872+1073059968+1073741824+1073499776+1072206592
1700.43+1069695616+1065800064+1060402560+1053464896+1045031232+1035203840
1697.53+1024104960+1011840832+998474688+984020160+968456640+951757312+933916672
1694.16+914972160+895008256+874146304+852528768+830299264+807593280+784534528
1690.78+761236544+737808128+714354496+690977664+667772800+644823552+622202304
1687.41+599972224+578191872+556918848+536211072+516122816+496699552+477967904
1684.03+459933248+442578592+425872160+409779328+394273856+379347104+365010144
1680.66+351286464+338201152+325768768+313980320+302800416+292170208+282018528
1677.28+272276576+262893328+253844032+245131792+236782256+228829824+221302288
1673.91+214208464+207531152+201228368+195241696+189509136+183977616+178613472
1670.53+173407104+168369552+163526384+158904480+154522400+150381472+146464224
1667.16+142737872+139162432+135700560+132325800+129028384+125815512+122706992
1663.78+119727744+116898352+114226968+111705704+109310144+107005592+104754920
1660.41+102528640+100312128+98109792+95943784+93848144+91859696+90007304
1657.04+88304032+86741976+85293792+83917568+82566808+81200368+79792392+78338032
1653.18+76853536+75372048+73932720+72570664+71307304+70145936+69073144+68064232
1649.32+67092496+66136688+65188808+64255524+63356560+62517396+61761352+61101112
1645.46+60533680+60041276+59595692+59166764+58730348+58275596+57807232+57343448
1641.61+56910424+56532004+56222828+55980164+55784976+55603544+55396176+55126664
1637.75+54770160+54319816+53786800+53196800+52581808+51970856+51381456+50815640
1633.89+50259660+49690208+49081308+48414332+47683748+46899488+46085716+45273596
1630.04+44493116+43764228+43091072+42459736+41841920+41202588+40509136+39740576
1626.18+38892688+37978532+37023976+36059816+35112052+34194464+33303806+32420780
1622.32+31515654+30558028+29525366+28411456+27227972+26003046+24773746+23576168
1618.47+22436938+21365406+20352222+19372120+18392098+17381370+16320819+15209647
1614.61+14065833+12922422+11818625+10790085+9859737+9031023+8288159+7599365
1610.75+6925567+6231301+5493031+4706586+3886241+3061910+2268957+1538914+890036
1606.41+322300-182423-655316-1131178-1639292-2193926-2791608-3411486-4021334
1602.07-4587461-5084272-5501620-5848053-6148125-6436354-6745665-7100069
1598.22-7506528-7953824-8416222-8860277-9255536-9582492-9838987-10040171
1594.36-10214483-10394927-10609930-10874833-11187233-11528063-11866913
1590.99-12170635-12412855-12581400-12682352-12738672-12783355-12850955
1587.61-12967593-13143569-13370897-13624511-13870367-14074406-14212441
1584.24-14277009-14279807-14248548-14219471-14226161-14290660-14416702
1580.86-14587809-14771958-14930759-15029468-15048280-14987273-14867967
1577.49-14727972-14611411-14556838-14587195-14702534-14880103-15081133
1574.11-15260768-15379994-15416984-15370866-15262811-15128909-15010178
1570.74-14941394-14941394-15007723-15117869-15236647-15325835-15356832
1567.36-15317863-15218726-15086313-14957552-14867899-14840557-14879149
1563.99-14965595-15064571-15133953-15136611-15050735-14877580-14640741
1560.61-14381697-14148548-13983800-13912096-13933949-14025793-14147455
1557.24-14254213-14308950-14293185-14210461-14083487-13947129-13836900
1553.86-13778227-13779183-13828089-13897959-13954915-13968231-13919677
1550.49-13809238-13653823-13483195-13329540-13218306-13161484-13152458
1547.11-13170715-13186169-13169690-13099734-12970193-12790334-12583384
1543.74-12378621-12203649-12077198-12003959-11974839-11969907-11965589
1540.36-11941264-11885896-11801461-11701934-11609039-11545343-11526348
1536.99-11556656-11627072-11716809-11798171-11844982-11838265-11772879
1533.61-11659499-11521754-11390425-11295423-11256801-11279645-11352083
1530.24-11448103-11535057-11582438-11569890-11492816-11364909-11213236
1526.86-11070995-10967705-10920482-10928238-10973059-11023367-11045192
1523.49-11009984-10903870-10732302-10518444-10297497-10106231-9973003-9909677
1519.63-9908027-9942682-9977609-9976578-9912566-9774203-9568525-9317762
1515.77-9052500-8802549-8587641-8412016-8262336-8111997-7926641-7674347
1511.92-7332513-6892829-6363306-5764476-5122956-4464077-3804111-3146113
1508.06-2479299-1780910-1023820-181584+762930+1816217+2973200+4221884+5550211
1503.72+6952775+8435670+10018741+11733183+13616174+15703230+18020272+20578626
1499.87+23372326+26381508+29578282+32935316+36432584+40062896+43832388+47755852
1496.01+51850484+56126548+60579540+65186072+69902920+74671896+79426864+84102808
1492.15+88643480+93006976+97167832+101114040+104841416+108347376+111623944
1488.78+114655648+117419832+119892304+122054880+123903104+125451224+126733832
1485.40+127801224+128711592+129520432+130270040+130983360+131661656+132287424
1482.03+132833120+133270528+133580960+133761144+133825272+133800104+133718192
1478.65+133607432+133483536+133345008+133173592+132940520+132614088+132171160
1475.28+131604896+130928936+130176000+129391896+128626216+127922536+127310704
1471.90+126804056+126400672+126090944+125865480+125724096+125680472+125762088
1468.53+126004200+126440496+127092416+127958416+129009216+130188440+131420968
1465.15+132624736+133726272+134674128+135446432+136052496+136526672+136918224
1461.78+137276768+137642688+138037328+138462000+138900640+139327264+139715088
1458.40+140044992+140310960+140520720+140691712+140842848+140986320+141119584
1455.03+141222640+141260016+141186672+140958880+140543328+139925440+139112080
1451.65+138129712+137016704+135812448+134547104+133233928+131866904+130425272
1448.28+128882928+127218448+125426536+123522552+121542984+119536864+117555856
1444.90+115641560+113816728+112081024+110413624+108781592+107152192+105503824
1441.53+103834744+102165696+100534536+98987216+97565592+96295440+95180040
1438.15+94197880+93309240+92465280+91622648+90754704+89859176+88958760+88094416
1434.30+87313472+86657056+86148472+85787312+85549456+85393768+85273448+85148352
1430.44+84995888+84816536+84633128+84483240+84407976+84438952+84589096+84848176
1426.58+85185632+85557832+85920920+86242224+86508600+86731144+86940800+87178760
1422.73+87484528+87883256+88377976+88946712+89547616+90128752+90640880+91050568
1418.87+91347816+91548744+91689320+91814720+91965752+92166808+92418896+92699392
1415.01+92969032+93182696+93302304+93306776+93198032+92999480+92748328+92484072
1411.16+92236896+92018720+91819792+91612472+91359824+91027704+90595248+90062864
1407.30+89452640+88803744+88163128+87573800+87064816+86645944+86307600+86027560
1403.44+85781512+85554440+85349888+85194288+85135384+85234072+85553704+86146688
1399.58+87046408+88260912+89774832+91555984+93566080+95770448+98145336
1396.21+100679280+103369104+106210816+109188568+112266072+115380696+118445448
1392.84+121356080+124003688+126287480+128127000+129468504+130286928+130582160
1389.46+130371168+129678688+128531008+126950208+124956040+122569128+119818920
1386.09+116750712+113429856+109941432+106385624+102866880+99481408+96305616
1382.71+93386640+90739600+88349680+86181480+84190224+82335048+80587408+78937160
1378.85+77389672+75960592+74666808+73516768+72504224+71607952+70794696+70027328
1375.00+69275128+68521760+67769992+67041184+66368872+65788696+65327700+64995336
1371.14+64779712+64648716+64557528+64458276+64311396+64094732+63806572+63464900
1367.28+63099208+62740828+62413036+62122752+61858752+61594988+61297380+60934468
1363.43+60487432+59954828+59355188+58721612+58093272+57505060+56978812+56518032
1359.57+56108008+55721648+55327744+54900388+54428188+53916196+53386532+52870932
1355.71+52403264+52009364+51700040+51468600+51292344+51139488+50977716+50783916
1351.86+50548908+50281532+50004072+49746536+49537544+49395800+49324556+49311020
1348.00+49328780+49346692+49336996+49283596+49186932+49063556+48942600+48856820
1344.14+48834440+48890036+49021856+49211080+49428208+49640396+49821328+49958264
1340.28+50055860+50134500+50225304+50360276+50563956+50846868+51201756+51606908
1336.43+52032216+52447808+52833240+53183284+53509020+53835664+54194512+54615172
1332.57+55116060+55700116+56353840+57051260+57761392+58457128+59123216+59759508
1328.71+60381032+61013152+61682420+62408176+63196056+64034168+64895732+65745512
1324.86+66548616+67280232+67932664+68517320+69062048+69604016+70179664+70815768
1321.00+71522784+72292432+73102136+73921528+74722448+75488200+76218312+76930040
1317.14+77653328+78422952+79269512+80209808+81243656+82353360+83509632+84679904
1313.29+85838064+86972352+88088520+89209752+90368872+91600336+92930984+94372360
1309.43+95918376+97547216+99227792+100929536+102630176+104322760+106016824
1306.05+107735536+109508344+111362112+113312136+115357880+117481432+119651720
1302.68+121833072+123993328+126112528+128187432+130231184+132268584+134328256
1299.30+136433712+138595808+140809808+143055856+145304624+147525264+149694192
1295.93+151800976+153851152+155864272+157866992+159886144+161939744+164032064
1292.55+166151856+168276144+170375792+172424192+174404352+176313680+178164000
1289.18+179978064+181782400+183598880+185439120+187299536+189163024+191002576
1285.81+192789520+194500480+196124016+197663248+199134752+200563600+201975680
1282.43+203390944+204817664+206250096+207670784+209055776+210381872+211633280
1279.06+212806256+213910832+214967520+216001984+217037776+218089488+219159104
1275.68+220235136+221295568+222314592+223268688+224143616+224937600+225661104
1272.31+226333728+226976832+227608640+228236576+228856256+229451264+229997488
1268.93+230469856+230848288+231122608+231295088+231378448+231391008+231351152
1265.56+231270496+231150352+230980080+230740080+230406512+229957856+229380336
1262.18+228671536+227840512+226905792+225889344+224811264+223685216+222514848
1258.81+221294912+220013776+218657888+217217104+215688528+214078208+212400112
1255.43+210673824+208919776+207155648+205392848+203636016+201883056+200128272
1252.06+198365200+196590480+194805344+193016048+191233264+189469440+187735296
1248.68+186038048+184379024+182754112+181154112+179568304+177986096+176400304
1245.31+174808464+173213472+171622384+170044320+168488544+166962016+165468112
1241.93+164005744+162571104+161158496+159762624+158380592+157012432+155661408
1238.56+154333456+153035200+151772224+150547760+149361712+148210656+147088832
1235.18+145989616+144906512+143834720+142771776+141717152+140671584+139636608
1231.81+138613392+137601968+136602144+135612736+134633088+133663472+132705656
1228.43+131762496+130837896+129936048+129060368+128212752+127393944+126602960
1225.06+125838000+125097320+124380136+123687104+123020680+122385192+121786336
1221.68+121230216+120722608+120268872+119873432+119539136+119269040+119066304
1218.31+118935376+118882656+118917776+119053072+119304384+119690096+120230456
1214.93+120947016+121861784+122995920+124369944+126002768+127911408+130111704
1211.56+132616360+135436032+138577344+142042416+145828320+149925792+154319392
1208.18+158988016+163905408+169041568+174364576+179841808+185441232+191131776
1204.81+196884416+202671552+208466480+214243216+219976800+225642928+231218912
1201.43+236684720+242023840+247223472+252275280+257175248+261922320+266518336
1198.06+270966432+275269728+279431584+283454592+287341056+291092800+294712160
1194.69+298201856+301564672+304803328+307920032+310915808+313789664+316538912
1191.31+319159040+321644672+323990208+326191072+328244192+330148512+331904960
1187.94+333515392+334982528+336308224+337492704+338535520+339434848+340188896
1184.56+340796992+341261056+341585824+341778720+341850016+341810528+341670272
1181.19+341437664+341117632+340711840+340219488+339638112+338965504+338200704
1177.81+337345728+336404128+335381760+334284992+333119008+331886976+330589760
1174.44+329225440+327791232+326283840+324701952+323047200+321323968+319540480
1171.06+317706112+315831360+313925664+311996672+310049152+308085344+306106144
1167.69+304111712+302102848+300081856+298052640+296020672+293991488+291970208
1164.31+289960128+287962208+285973952+283991040+282007776+280017632+278015840
1160.94+275998688+273964832+271915168+269851552+267776944+265694048+263604512
1157.56+261509232+259408784+257303504+255194432+253083504+250974256+248871056
1154.19+246778640+244701424+242642816+240604496+238586608+236588688+234608608
1150.81+232645600+230698416+228766704+226849888+224945808+223050352+221156480
1147.44+219253856+217329168+215367920+213355952+211281696+209137616+206922032
1144.06+204638464+202296032+199907104+197486176+195047728+192604688+190167472
1140.69+187744256+185340512+182960416+180607072+178283760+175994064+173740960
1137.31+171528304+169358496+167233296+165152768+163115472+161119136+159160208
1133.94+157235376+155341296+153475760+151637584+149826848+148044464+146292000
1130.56+144571360+142884528+141232752+139617584+138039200+136497904+134993984
1127.19+133527136+132097096+130703136+129344552+128019560+126726024+125461304
1123.81+124222184+123005408+121808416+120628328+119463816+118313592+117177136
1120.44+116054184+114943616+113844360+112755144+111673600+110598232+109527344
1117.06+108460240+107396648+106336920+105281152+104229208+103179384+102128824
1113.69+101073368+100007448+98925544+97822280+96693840+95537448+94352688
1110.31+93140328+91902440+90640792+89357760+88054392+86731464+85388544+84024968
1106.46+82639952+81233256+79804888+78355608+76887104+75401352+73900872+72388192
1102.60+70865952+69336280+67801160+66261592+64718288+63171132+61619884+60064244
1098.74+58504720+56942360+55379120+53818264+52263768+50719788+49190012+47677680
1094.89+46184176+44710280+43255248+41817928+40397344+38992752+37604376+36233040
1091.03+34880080+33546816+32234418+30942756+29672210+28421806+27190980+25979582
1087.17+24788334+23618246+22471380+21349810+20255320+19189352+18152110+17143162
1083.32+16161535+15206381+14276783+13372479+12493784+11640977+10814909+10015434
1079.46+9242586+8495338+7772674+7073408+6397102+5743326+5113027+4506907+3926228
1075.12+3371479+2842551+2338462+1857326+1396876+955175+530430+122184-269176
1070.78-642043-994778-1325182-1631830-1913782-2170725-2402832-2610202-2792721
1066.44-2949231-3078221-3176787-3242026-3270470-3259482-3206764-3110568
1062.59-2970800-2788824-2567522-2312076-2030594-1734335-1437508-1157840-915045
1058.25-729915-622553-610817-707634-920561-1250310-1691174-2231129-2853409
1053.91-3538775-4266388-5017574-5775902-6529240-7270768-7998183-8713812
1050.05-9423063-10132763-10849363-11577432-12318842-13071079-13828704-14583375
1046.19-15325153-16044765-16734611-17389634-18007646-18589170-19136408
1042.82-19652298-20139290-20598938-21031576-21436790-21813294-22160262
1039.44-22477884-22766274-23027292-23262182-23472926-23660486-23825964
1036.07-23969444-24092082-24194630-24278976-24347344-24402286-24445824
1032.69-24479158-24502164-24513434-24510684-24491904-24455280-24401348
1029.32-24331914-24251330-24164832-24078254-23996632-23923458-23860344
1025.94-23806692-23759886-23716366-23671770-23622132-23564226-23494828
1022.57-23411510-23311714-23192544-23050892-22882910-22685342-22455202
1019.19-22190158-21889898-21554902-21187410-20790186-20366356-19918558
1015.82-19448906-18958160-18446536-17913576-17359152-16783068-16187030
1012.45-15573362-14946576-14311953-13676369-13047483-12433258-11842994
1009.07-11285476-10770342-10307735-9907133-9577813-9328431-9165215-9092507
1005.21-9111648-9220291-9412740-9679766-10009441-10387026-10796501-11221058
1001.36-11644006-12049658-12424358-12756531-13037429-13261312-13424690
997.98-13526591-13567046-13547298-13468296-13330975-13135294-12881057-12567162
994.12-12192690-11756977-11259476-10699892-10078529-9394847-8648076-7836805
990.27-6959038-6011710-4992405-3898526-2727990-1479433-152221+1253962+2739296
985.93+4303702+5947453+7670674+9473448+11355035+13313278+15345376+17446096
982.07+19609968+21830154+24100050+26414244+28768152+31160086+33590616+36063312
978.21+38583780+41159488+43799232+46512180+49306684+52190304+55168380+58243932
974.36+61417140+64684404+68039144+71471000+74965800+78506608+82072704+85641744
970.50+89189528+92691160+96121704+99457880+102677656+105762248+108695816
967.13+111465816+114063304+116482792+118722016+120780776+122661128+124366480
963.75+125901392+127270960+128480256+129535608+130444176+131214080+131855088
960.38+132378648+132797560+133125376+133375472+133560496+133691272+133775856
957.00+133819688+133826320+133796760+133731808+133631496+133497016+133330208
953.63+133133544+132909696+132661168+132389520+132095040+131776728+131432336
950.25+131059728+130656728+130221624+129753672+129252800+128719264+128152712
946.88+127552240+126915832+126240696+125523672+124761632+123953112+123098224
943.50+122199472+121261392+120290600+119294704+118282112+117260448+116236688
940.13+115216584+114204200+113202632+112213528+111237840+110275616+109326736
936.75+108390536+107466192+106553328+105651096+104759520+103878528+103008480
933.38+102149464+101301136+100462952+99633880+98812768+97998880+97191840
930.00+96393512+95606920+94837520+94091472+93376384+92699352+92066248+91481480
926.15+90945960+90458168+90013296+89603176+89216720+88840728+88459480+88056712
922.29+87615640+87121328+86561312+85928088+85219760+84440840+83602000+82719056
918.43+81811184+80898624+80000736+79133960+78310696+77539104+76823768+76166192
914.58+75566112+75022584+74534024+74098528+73713544+73374688+73075992+72808928
910.72+72562312+72322920+72076392+71807688+71502360+71147216+70731384+70246856
906.86+69688320+69053944+68345184+67566416+66724420+65827692+64885972+63908876
903.00+62905804+61885132+60854332+59820180+58788744+57766408+56760180+55777712
899.15+54827596+53918764+53059984+52259108+51521696+50851024+50247056+49706456
895.29+49222412+48785116+48382740+48001016+47625232+47240472+46832184+46387208
891.43+45894132+45344116+44731264+44052888+43310056+42507668+41653972+40760620
887.58+39841012+38910212+37983272+37074520+36196256+35358784+34569716+33833896
883.72+33154236+32531058+31963224+31447806+30980466+30556260+30169098+29812836
879.86+29481498+29170192+28874844+28592824+28322792+28064476+27817492+27581790
876.01+27356660+27140770+26932760+26730860+26534262+26342738+26157494+25980350
872.15+25814002+25660958+25523294+25402314+25298368+25210832+25138820+25081376
868.29+25038244+25009160+24995112+24997558+25018500+25059516+25122542+25208496
864.44+25317462+25448580+25599520+25767232+25947202+26135084+26325770+26515276
860.58+26700632+26880300+27054314+27224532+27393368+27563940+27739658+27922836
856.72+28115682+28319050+28533866+28759744+28996948+29244944+29503156+29770862
852.86+30046714+30329544+30617926+30911426+31209646+31513810+31825920+32148796
849.01+32485268+32838570+33210328+33601616+34012132+34441216+34887944+35351504
845.15+35832340+36331536+36850892+37392212+37957160+38546136+39158208+39791016
841.29+40440912+41103416+41773844+42447820+43121444+43791208+44454300+45107424
837.44+45746984+46367944+46963916+47527132+48048260+48517860+48926144+49264772
833.58+49527120+49709160+49809604+49829892+49773520+49644736+49448328+49188072
829.72+48866020+48482880+48037676+47528760+46954488+46313988+45608384+44840368
825.87+44015004+43138716+42219396+41265684+40286404+39290288+38286080+37282212
822.01+36286788+35308092+34353972+33432386+32551424+31718912+30943126+30232454
818.15+29594830+29037582+28567272+28188356+27902960+27710404+27607296+27587470
814.30+27642924+27764404+27942308+28167332+28430872+28724528+29040850+29372566
810.44+29712596+30054074+30390598+30716444+31026948+31317962+31586756+31829870
806.58+32044166+32225110+32367238+32464498+32510954+32501602+32434528+32310264
802.72+32133026+31910276+31651116+31365360+31061494+30745772+30421422+30088710
798.87+29745664+29388960+29015536+28623260+28211798+27782368+27337754+26881436
795.01+26416292+25944424+25466436+24982160+24490188+23988832+23476984+22954204
791.15+22421280+21880202+21333530+20784034+20234184+19685608+19138664+18592952
787.30+18046666+17497466+16943272+16382410+15813317+15236309+14652016+14061679
783.44+13466783+12868808+12268657+11666658+11062854+10456538+9847114+9234451
779.58+8618063+7998493+7376674+6753674+6130593+5508949+4890008+4274820+3664850
775.24+3061031+2464189+1875285+1294751+722843+158837-397638-947722-1492826
770.90-2033521-2570307-3103403-3631566-4154046-4669402-5176264-5674101-6162726
766.57-6642994-7116236-7584541-8050127-8514241-8978194-9441849-9904245
762.71-10363254-10816410-11260849-11693913-12113574-12518697-12908832-13284625
758.85-13646991-13997593-14337954-14670138-14996067-15317863-15637917-15959362
754.99-16285120-16619058-16964832-17326290-17707068-18110450-18538964-18994516
751.14-19477860-19988382-20524324-21082646-21659108-22249210-22848674-23454246
747.28-24064428-24679474-25302116-25936274-26586456-27255812-27945942-28655042
743.42-29378052-30107548-30834146-31549108-32245330-32919504-33572560-34210052
739.57-34841316-35478220-36133172-36817344-37539816-38305884-39117140-39971636
735.71-40864480-41788276-42734864-43695256-44660940-45624132-46577996-47517152
731.85-48437552-49335944-50210292-51059112-51881424-52676436-53444776-54186732
728.00-54904376-55600412-56278464-56942224-57595780-58242088-58882816-59518232
724.14-60146844-60766448-61373944-61966908-62543804-63104436-63650104-64182972
720.28-64705972-65221864-65733240-66241428-66747488-67251560-67753440-68252536
716.43-68748280-69240000-69726848-70207696-70681520-71146912-71603272-72049808
712.57-72486056-72912592-73329560-73737600-74136728-74527208-74908440-75280080
708.71-75641400-75992368-76333048-76663592-76984384-77295248-77596208-77886176
704.85-78164192-78429592-78682392-78923360-79154984-79380120-79603024-79827120
701.00-80054920-80287448-80523728-80760704-80993992-81218352-81428936-81621616
697.14-81793912-81945480-82077616-82193496-82297312-82394488-82490312-82590376
693.28-82698984-82820024-82955056-83104992-83268656-83443816-83627152-83814992
689.43-84004464-84192784-84378560-84561560-84741824-84920112-85096584-85270592
685.57-85440728-85604232-85758448-85900296-86028160-86141152-86241136-86331200
681.71-86416064-86501272-86591792-86691392-86802440-86924864-87056728-87194584
677.86-87334160-87471720-87603640-87727888-87843192-87948720-88044432-88129760
674.00-88204136-88266048-88314784-88349976-88372344-88383360-88385760-88382576
670.14-88376264-88368016-88357672-88342808-88320072-88285904-88237352-88173632
666.29-88096128-88008856-87917848-87830248-87752696-87690672-87647664-87625024
662.43-87621048-87632848-87656096-87685184-87714992-87740528-87756968-87760888
658.57-87749928-87722768-87680312-87624656-87558944-87486544-87410992-87334224
654.71-87256968-87177944-87094648-87003912-86902552-86787664-86658272-86514072
650.86-86355464-86184208-86001408-85808416-85606528-85397080-85181928-84964040
647.00-84745880-84531224-84322664-84122208-83929624-83743392-83560696-83377328
643.14-83189776-82995120-82792144-82581264-82364536-82145288-81927176-81713976
639.29-81509584-81316744-81137856-80974376-80826760-80694224-80574632-80465200
635.43-80361672-80260432-80158696-80055896-79953760-79857032-79772256-79707728
631.57-79670976-79668168-79702720-79774512-79880648-80016120-80174376-80354784
627.72-80545432-80739496-80930392-81111176-81273576-81407752-81503128-81550968
623.86-81538184-81461016-81323136-81136328-80920096-80697208-80490200-80313616
620.00-80176992-80076704-79997632-79916656-79809544-79654920-79441376-79169840
616.15-78849448-78496944-78130160-77759280-77382288-76984072-76536056-76008152
612.29-75364096-74582824-73662168-72616880-71483424-70305472-69130680-67992888
608.43-66918972-65914832-64973516-64074768-63193604-62300544-61366136-60348532
604.57-59239460-58024976-56708440-55305956-53854820-52407376-51022832-49744628
600.72-48623288-47674360-46887516-46225720-45638368-45071860-44481856-43834344
596.86-43130116-42376440-41596060-40808452-40029772-39263340-38511356-37771132
593.00-37046972-36349792-35702320-35127644-34647736-34264408-33960960-33704236
589.15-33440066-33116760-32691888-32141864-31474150-30716558-29917914-29132090
585.29-28401848-27753944-27197196-26714494-26271652-25829882-25343708-24778702
581.43-24104028-23301500-22373758-21328568-20190912-18992146-17771048-16555359
577.58-15375498-14243292-13151706-12075349-10974364-9806733-8535262-7124665
573.72-5588698-3948819-2239837-503084+1227577+2936266+4628060+6350761+8110159
569.38+9934558+11839640+13819302+15846115+17877864+19867554+21802390+23634920
565.52+25365838+27018906+28635448+30255722+31919286+33645048+35445988+37281948
561.67+39112048+40889724+42573500+44134232+45563108+46876724+48104620+49285500
557.81+50462964+51675872+52944172+54268684+55629336+56995540+58302128+59526104
553.95+60625564+61584812+62394836+63074872+63647888+64154800+64608980+65070812
550.10+65563780+66102800+66695036+67336032+68006040+68694304+69339664+69955936
546.24+70516360+71010104+71421040+71749120+71995584+72178688+72281040+72347208
542.38+72390440+72420824+72441280+72452240+72452672+72450464+72434752+72441280
538.52+72485200+72591952+72770680+73029464+73351672+73718144+74085552+74430096
534.67+74718680+74932264+75061288+75113984+75107824+75069392+75015512+74974704
530.81+74952608+74950976+74957976+74956064+74930080+74867392+74765224+74641280
526.95+74515488+74426248+74402944+74475512+74651400+74927544+75273208+75648440
523.10+76002584+76293968+76487656+76578608+76573152+76507816+76416912+76342352
519.24+76306672+76314680+76350880+76394928+76416872+76402136+76346896+76277408
515.38+76220464+76212344+76276608+76425952+76645152+76906360+77172872+77406304
511.53+77581248+77692288+77749328+77774000+77789456+77812568+77852256+77902888
507.67+77938352+77952128+77925136+77866352+77782784+77696160+77631736+77605712
503.81+77623712+77685984+77782104+77898976+78021336+78143848+78253440+78358008
499.96+78452088+78542584+78628264+78711912+78792120+78873440+78959792+79057456
496.10+79175824+79322504+79498936+79700456+79918752+80139776+80341032+80510872
492.24+80635952+80708568+80729272+80706320+80648392+80570240+80486008+80410608
488.38+80352704+80320744+80316576+80347208+80410528+80515208+80649872+80823416
484.53+81022856+81233336+81425648+81565624+81616576+81554616+81361536+81049760
480.67+80656248+80237392+79859616+79595528+79490888+79580624+79850760+80267584
476.81+80769080+81287112+81757328+82133952+82391504+82538072+82594784+82598928
472.96+82588784+82597840+82639264+82721272+82826440+82930304+82991248+82975016
469.10+82851048+82606496+82247992+81809864+81349328+80936432+80644376+80529688
465.24+80609072+80875024+81263536+81692696+82059024+82278528+82295704+82105320
461.39+81744304+81289800+80824976+80437520+80172568+80048152+80036168+80086664
457.53+80138576+80139936+80062816+79905848+79692608+79465224+79258944+79108832
453.67+79029008+79017408+79061096+79145848+79253496+79378944+79519440+79672504
449.81+79833136+79995688+80140296+80245928+80280968+80231296+80086744+79853288
445.96+79550392+79213280+78883592+78611312+78432824+78378832+78459600+78672280
442.10+78987600+79363456+79746120+80078336+80305344+80390880+80310600+80071200
438.24+79693408+79225968+78727144+78259024+77879328+77634568+77547608+77618520
434.39+77816248+78102424+78411008+78686152+78870192+78935760+78871880+78704192
430.53+78473792+78240936+78059680+77978008+78012112+78158592+78385784+78654048
426.67+78909800+79117272+79252864+79314496+79312456+79270792+79204512+79133640
422.82+79063376+78991240+78917312+78844000+78775088+78726824+78712144+78744856
418.96+78827280+78954640+79115072+79294240+79474992+79656840+79842584+80046632
415.10+80277040+80543088+80838184+81144952+81433528+81672160+81834344+81904536
411.25+81884672+81794264+81656768+81502344+81359728+81247432+81172256+81136760
407.39+81140736+81181936+81257512+81362864+81493904+81639608+81780680+81898304
403.53+81971440+81996496+81969840+81910688+81842792+81796712+81793504+81850024
##END=
